0.9941520690917968,0.5256659984588623,0.24821312725543976,0.07082521170377731,0.1520467847585678,0.25860947370529175,0.31578946113586426,0.3469785451889038,0.3528265058994293,0.34892788529396057,0.35932424664497375,0.35867446660995483,0.38076671957969666,0.37556853890419006,0.37556853890419006,0.3898635506629944,0.3814164996147156,0.39311242103576655,0.38791424036026,0.376218318939209,0.3729694485664368,0.3820662796497345,0.38466536998748774,0.37816762924194336,0.3710201382637024,0.3768680989742279,0.3820662796497345,0.39311242103576655,0.3976608216762542,0.3983106017112732,0.3983106017112732,0.395061731338501,0.4048083126544952,0.41650423407554626,0.41390514373779297,0.41650423407554626,0.427550345659256,0.43924626708030706,0.4340480864048004,0.43469786643981934,0.44314488768577576,0.446393758058548,0.45419102907180786,0.4600389897823334,0.4411955773830414,0.4385964870452881,0.4230019450187683,0.4132553637027741,0.40740740299224854,0.38661468029022217,0.38401558995246887,0.3632228672504425,0.3625730872154236,0.36582195758819586,0.3606237769126892,0.34762832522392273,0.3554255962371826,0.3469785451889038,0.35412606596946716,0.3554255962371826,0.3495776355266571,0.34892788529396057,0.35607537627220154,0.3677712678909302,0.35867446660995483,0.36192333698272705,0.35607537627220154,0.36582195758819586,0.36582195758819586,0.35932424664497375,0.3547758162021637,0.3463287949562073,0.35932424664497375,0.3554255962371826,0.34892788529396057,0.34892788529396057,0.343729704618454,0.343729704618454,0.33983105421066284,0.3411306142807007,0.33398309350013733,0.33203378319740295,0.34567901492118835,0.33983105421066284,0.3365821838378906,0.3385315239429474,0.32878491282463074,0.35347628593444824,0.3528265058994293,0.3385315239429474,0.32683560252189636,0.33398309350013733,0.33723196387290955,0.3651721775531769,0.3710201382637024,0.3976608216762542,0.4126055836677551,0.4256010353565216,0.46523717045784,0.5107212662696838,0.5035737752914429,0.4970760345458984,0.4964262545108795,0.46718648076057434,0.4418453574180603,0.40935671329498285,0.34762832522392273,0.33528265357017517,0.3086419701576233,0.3034437894821167,0.29694607853889465,0.3092917501926422,0.3001949191093445,0.30604287981987,0.2975958287715912,0.30994153022766113,0.3008446991443634,0.5009746551513672,0.4567901194095611,0.7576348185539244,1.0,0.6718648672103882,0.26640674471855164,0.15984405577182767,0.0,0.22417153418064115,0.2742040157318115,0.31838855147361755,0.33203378319740295,0.32878491282463074,0.35347628593444824,0.3144899308681488,0.3274853825569153,0.35412606596946716,0.33723196387290955,0.35347628593444824,0.35672515630722046,0.3599739968776703,0.36192333698272705,0.3625730872154236,0.357374906539917,0.3606237769126892,0.37231969833374023,0.3677712678909302,0.357374906539917,0.0,0.0,0.0,0.0,0.0,0.0,0.0,0.0,0.0,0.0,0.0,0.0,0.0,0.0,0.0,0.0,0.0,0.0,0.0,0.0,0.0,0.0,0.0,0.0,0.0,0.0,0.0,0.0,0.0,0.0,0.0,0.0,0.0,0.0,0.0,0.0,0.0,0.0,0.0,0.0,0.0,0.0,1
0.867415726184845,0.9955056309700013,0.9685392975807189,0.8943819999694824,0.8337078690528871,0.7775281071662903,0.649438202381134,0.40449437499046326,0.22471910715103147,0.16404494643211365,0.1393258422613144,0.1011235937476158,0.08988764137029648,0.07415730506181717,0.07191011309623718,0.049438200891017914,0.04494382068514824,0.03146067261695862,0.033707864582538605,0.01123595517128706,0.01123595517128706,0.0,0.004494382068514824,0.004494382068514824,0.02921348251402378,0.04269662871956825,0.08314606547355652,0.09438202530145645,0.1393258422613144,0.170786514878273,0.21123595535755155,0.21348313987255096,0.23595505952835083,0.22696629166603088,0.24494382739067075,0.23370786011219025,0.2404494434595108,0.23370786011219025,0.24494382739067075,0.2426966279745102,0.2584269642829895,0.25168538093566895,0.2629213631153106,0.24943819642066956,0.2584269642829895,0.2561797797679901,0.26966291666030884,0.2606741487979889,0.2719101011753082,0.2584269642829895,0.2764045000076294,0.2719101011753082,0.2808988690376282,0.2764045000076294,0.2808988690376282,0.26741573214530945,0.28764045238494873,0.27415731549263,0.2921348214149475,0.2786516845226288,0.2898876368999481,0.2764045000076294,0.2943820357322693,0.2808988690376282,0.2921348214149475,0.28539326786994934,0.2943820357322693,0.28539326786994934,0.3056179881095886,0.3101123571395874,0.33707866072654724,0.3460674285888672,0.3617977499961853,0.35280898213386536,0.35505616664886475,0.3325842618942261,0.31685394048690796,0.30112358927726746,0.2921348214149475,0.2786516845226288,0.29887640476226807,0.2921348214149475,0.30337077379226685,0.2966292202472687,0.2786516845226288,0.3280898928642273,0.5235955119132996,0.8202247023582457,1.0,0.6224719285964966,0.33932584524154663,0.2898876368999481,0.30337077379226685,0.2898876368999481,0.28539326786994934,0.26741573214530945,0.27415731549263,0.26966291666030884,0.28764045238494873,0.27415731549263,0.2943820357322693,0.2943820357322693,0.0,0.0,0.0,0.0,0.0,0.0,0.0,0.0,0.0,0.0,0.0,0.0,0.0,0.0,0.0,0.0,0.0,0.0,0.0,0.0,0.0,0.0,0.0,0.0,0.0,0.0,0.0,0.0,0.0,0.0,0.0,0.0,0.0,0.0,0.0,0.0,0.0,0.0,0.0,0.0,0.0,0.0,0.0,0.0,0.0,0.0,0.0,0.0,0.0,0.0,0.0,0.0,0.0,0.0,0.0,0.0,0.0,0.0,0.0,0.0,0.0,0.0,0.0,0.0,0.0,0.0,0.0,0.0,0.0,0.0,0.0,0.0,0.0,0.0,0.0,0.0,0.0,0.0,0.0,0.0,0.0,0.0,0.0,0.0,0.0,1
1.0,0.5610389709472656,0.36103895306587214,0.19740259647369385,0.11428571492433548,0.05974026024341583,0.020779220387339592,0.025974025949835777,0.010389610193669796,0.025974025949835777,0.007792207878082991,0.012987012974917889,0.005194805096834898,0.012987012974917889,0.007792207878082991,0.0181818176060915,0.005194805096834898,0.023376623168587685,0.0,0.012987012974917889,0.010389610193669796,0.010389610193669796,0.01558441575616598,0.020779220387339592,0.0181818176060915,0.033766232430934906,0.025974025949835777,0.03896103799343109,0.04415584355592728,0.06493506580591202,0.0701298713684082,0.09870129823684692,0.1038961037993431,0.13506492972373962,0.137662336230278,0.1766233742237091,0.18701298534870148,0.20519480109214783,0.20519480109214783,0.22077922523021695,0.2129870057106018,0.20000000298023224,0.17402596771717072,0.15584415197372437,0.12207791954278945,0.10909090936183928,0.08051948249340057,0.08571428805589675,0.05454545468091965,0.06753246486186981,0.051948051899671555,0.062337663024663925,0.04935064911842346,0.05974026024341583,0.041558440774679184,0.051948051899671555,0.04935064911842346,0.04935064911842346,0.04675324633717537,0.05454545468091965,0.04415584355592728,0.062337663024663925,0.062337663024663925,0.05974026024341583,0.05714285746216773,0.06493506580591202,0.062337663024663925,0.072727270424366,0.062337663024663925,0.062337663024663925,0.05714285746216773,0.07792207598686218,0.06753246486186981,0.07532467693090439,0.06753246486186981,0.072727270424366,0.06493506580591202,0.072727270424366,0.062337663024663925,0.0701298713684082,0.05974026024341583,0.0701298713684082,0.062337663024663925,0.0701298713684082,0.05714285746216773,0.072727270424366,0.0701298713684082,0.06753246486186981,0.062337663024663925,0.06493506580591202,0.062337663024663925,0.06493506580591202,0.05974026024341583,0.072727270424366,0.05714285746216773,0.072727270424366,0.06493506580591202,0.0701298713684082,0.062337663024663925,0.07532467693090439,0.072727270424366,0.08831168711185455,0.09610389918088913,0.10909090936183928,0.09090909361839294,0.11948052048683167,0.13246753811836243,0.15324676036834717,0.12727272510528564,0.12727272510528564,0.11948052048683167,0.11168830841779707,0.09870129823684692,0.08571428805589675,0.05714285746216773,0.05714285746216773,0.04935064911842346,0.05714285746216773,0.04675324633717537,0.05454545468091965,0.04415584355592728,0.051948051899671555,0.010389610193669796,0.0181818176060915,0.34025973081588745,0.9168831110000609,0.8779220581054688,0.43376624584198,0.3220779299736023,0.18701298534870148,0.09090909361839294,0.05454545468091965,0.036363635212183,0.033766232430934906,0.023376623168587685,0.036363635212183,0.023376623168587685,0.03116883151233196,0.025974025949835777,0.036363635212183,0.020779220387339592,0.033766232430934906,0.020779220387339592,0.028571428731083866,0.025974025949835777,0.03116883151233196,0.033766232430934906,0.03116883151233196,0.033766232430934906,0.036363635212183,0.0,0.0,0.0,0.0,0.0,0.0,0.0,0.0,0.0,0.0,0.0,0.0,0.0,0.0,0.0,0.0,0.0,0.0,0.0,0.0,0.0,0.0,0.0,0.0,0.0,0.0,0.0,0.0,0.0,0.0,0.0,0.0,0.0,0.0,0.0,0.0,0.0,0
1.0,0.6980913877487183,0.2735685408115387,0.14574898779392242,0.119722381234169,0.06477732956409454,0.07807981222867964,0.07518796622753143,0.06940428167581558,0.08212839812040329,0.08039329200983047,0.10873337090015411,0.0855986103415489,0.08675535023212431,0.09543088823556899,0.07923655211925507,0.10989011079072952,0.08617698401212692,0.11162521690130232,0.11104685068130492,0.10179294645786284,0.1312897652387619,0.119722381234169,0.119722381234169,0.12145748734474182,0.120300754904747,0.15615962445735931,0.1445922553539276,0.1775592863559723,0.20532099902629852,0.20474262535572052,0.2527472674846649,0.24812030792236328,0.27761712670326233,0.308270663022995,0.2955465614795685,0.3209947943687439,0.29091960191726685,0.27935221791267395,0.25795257091522217,0.21746674180030823,0.20763446390628815,0.15153267979621887,0.14690572023391724,0.1295546591281891,0.11220358312129974,0.13418160378932953,0.09485251456499101,0.08444187045097351,0.09369577467441559,0.08733371645212173,0.11336032301187517,0.08906882256269455,0.08502024412155151,0.09080393612384796,0.09022556245326997,0.11278195679187775,0.08733371645212173,0.0971659943461418,0.09022556245326997,0.07923655211925507,0.10584152489900588,0.08964719623327254,0.09658762067556381,0.09832272678613663,0.09138230234384535,0.11046847701072691,0.08270676434040068,0.08270676434040068,0.09774436056613922,0.07865818589925766,0.1075766310095787,0.06651243567466736,0.0722961276769638,0.08906882256269455,0.07750144600868225,0.09658762067556381,0.05610179156064987,0.08270676434040068,0.08733371645212173,0.07287449389696121,0.08906882256269455,0.06940428167581558,0.0717177540063858,0.061307113617658615,0.05841526761651039,0.08733371645212173,0.0595720075070858,0.06188548356294632,0.07750144600868225,0.07518796622753143,0.1075766310095787,0.09947946667671205,0.1075766310095787,0.10121457278728484,0.10410641878843307,0.13302487134933472,0.10294967889785767,0.10526315867900848,0.09022556245326997,0.07634470611810684,0.08849045634269713,0.06419895589351654,0.08039329200983047,0.0855986103415489,0.08617698401212692,0.10989011079072952,0.0942741483449936,0.09138230234384535,0.0942741483449936,0.09311740845441818,0.17177559435367584,0.1440138816833496,0.1550028920173645,0.17293232679367063,0.16483516991138458,0.22209370136260984,0.2151532620191574,0.1671486347913742,0.1428571492433548,0.1428571492433548,0.1353383511304855,0.10584152489900588,0.09947946667671205,0.09543088823556899,0.07807981222867964,0.09022556245326997,0.05841526761651039,0.04164256900548935,0.0,0.23250433802604675,0.6205899119377136,0.9363794326782228,0.8901098966598511,0.45633313059806824,0.21168304979801175,0.14632736146450043,0.07460960000753403,0.06188548356294632,0.05841526761651039,0.03354540094733238,0.046847887337207794,0.03759398311376571,0.05263157933950424,0.06304222345352173,0.05378831550478935,0.0832851380109787,0.06477732956409454,0.06940428167581558,0.07981491833925246,0.0711393877863884,0.0971659943461418,0.07750144600868225,0.08617698401212692,0.09253904223442076,0.08733371645212173,0.12550607323646543,0.11046847701072691,0.1353383511304855,0.16078658401966095,0.0,0.0,0.0,0.0,0.0,0.0,0.0,0.0,0.0,0.0,0.0,0.0,0.0,0.0,0.0,0.0,0.0,0.0,0.0,0.0,0.0,0.0,0.0,0.0,0.0,0.0,0.0,0
1.0,0.7018544673919678,0.17617689073085785,0.0,0.11126961559057236,0.3808844387531281,0.351640522480011,0.30741798877716064,0.30028530955314636,0.2860199809074402,0.3188302516937256,0.29957205057144165,0.3338088393211365,0.3302425146102905,0.32239657640457153,0.3673323690891266,0.3544935882091522,0.3908701837062835,0.40513551235198975,0.3908701837062835,0.42867332696914673,0.45363765954971313,0.484308123588562,0.5014265179634094,0.5149785876274109,0.5606276988983154,0.5912981629371643,0.6155492067337036,0.6241084337234497,0.6233951449394226,0.6369472146034241,0.6184023022651672,0.5927246809005737,0.5563480854034424,0.5071326494216919,0.48074179887771606,0.4258202612400055,0.4037089943885803,0.3851640522480011,0.3601997196674347,0.3758915960788726,0.35520684719085693,0.3502139747142792,0.351640522480011,0.3338088393211365,0.3502139747142792,0.3430813252925873,0.35734665393829346,0.36376604437828064,0.34878745675086975,0.35948646068573,0.3366619050502777,0.34950071573257446,0.3416547775268554,0.3209700286388397,0.3380884528160095,0.34022825956344604,0.34022825956344604,0.3338088393211365,0.33951497077941895,0.3430813252925873,0.39158344268798834,0.41512125730514526,0.4614835977554322,0.4757489264011383,0.4750356674194336,0.507845938205719,0.48858773708343506,0.519971489906311,0.5114122629165649,0.45577746629714966,0.42225393652915955,0.3623395264148712,0.3195435106754303,0.2860199809074402,0.2781740427017212,0.25677603483200073,0.2781740427017212,0.24393723905086517,0.22681882977485657,0.2853066921234131,0.3338088393211365,0.47004279494285583,0.7895863056182861,0.7867332100868225,0.46718972921371454,0.040656205266714096,0.09486448019742964,0.1569186896085739,0.34736090898513794,0.3009985685348511,0.2631954252719879,0.26533523201942444,0.2689015567302704,0.25891584157943726,0.29814550280570984,0.2867332398891449,0.3209700286388397,0.31455063819885254,0.0,0.0,0.0,0.0,0.0,0.0,0.0,0.0,0.0,0.0,0.0,0.0,0.0,0.0,0.0,0.0,0.0,0.0,0.0,0.0,0.0,0.0,0.0,0.0,0.0,0.0,0.0,0.0,0.0,0.0,0.0,0.0,0.0,0.0,0.0,0.0,0.0,0.0,0.0,0.0,0.0,0.0,0.0,0.0,0.0,0.0,0.0,0.0,0.0,0.0,0.0,0.0,0.0,0.0,0.0,0.0,0.0,0.0,0.0,0.0,0.0,0.0,0.0,0.0,0.0,0.0,0.0,0.0,0.0,0.0,0.0,0.0,0.0,0.0,0.0,0.0,0.0,0.0,0.0,0.0,0.0,0.0,0.0,0.0,0.0,0.0,0.0,0.0,0
0.966527223587036,0.9288703203201293,0.3723849356174469,0.04184100404381752,0.08786610513925552,0.10041841119527815,0.06276150792837143,0.04184100404381752,0.04184100404381752,0.02092050202190876,0.029288703575730324,0.0,0.02510460279881954,0.008368200622498989,0.02510460279881954,0.02510460279881954,0.05020920559763908,0.05020920559763908,0.07949791103601456,0.07949791103601456,0.09623430669307709,0.0920502096414566,0.12552301585674283,0.12970711290836334,0.15062761306762695,0.15481171011924744,0.16736401617527008,0.15062761306762695,0.14644351601600647,0.11715481430292128,0.1129707098007202,0.07531380653381348,0.06694560497999191,0.033472802489995956,0.05020920559763908,0.01255230139940977,0.01255230139940977,0.0041841003112494946,0.02092050202190876,0.029288703575730324,0.06694560497999191,0.054393306374549866,0.06276150792837143,0.054393306374549866,0.05020920559763908,0.054393306374549866,0.06276150792837143,0.054393306374549866,0.07949791103601456,0.06694560497999191,0.06276150792837143,0.0460251048207283,0.05857740715146065,0.04184100404381752,0.04184100404381752,0.033472802489995956,0.0460251048207283,0.03765690326690674,0.05020920559763908,0.02510460279881954,0.04184100404381752,0.01255230139940977,0.029288703575730324,0.0041841003112494946,0.016736401244997978,0.008368200622498989,0.029288703575730324,0.04184100404381752,0.06694560497999191,0.04184100404381752,0.054393306374549866,0.07531380653381348,0.15062761306762695,0.27196651697158813,0.5648535490036011,0.8661087751388551,1.0,0.7615062594413757,0.3012552261352539,0.1380753070116043,0.12970711290836334,0.06276150792837143,0.04184100404381752,0.008368200622498989,0.02092050202190876,0.008368200622498989,0.008368200622498989,0.0041841003112494946,0.02510460279881954,0.008368200622498989,0.054393306374549866,0.05857740715146065,0.071129709482193,0.0,0.0,0.0,0.0,0.0,0.0,0.0,0.0,0.0,0.0,0.0,0.0,0.0,0.0,0.0,0.0,0.0,0.0,0.0,0.0,0.0,0.0,0.0,0.0,0.0,0.0,0.0,0.0,0.0,0.0,0.0,0.0,0.0,0.0,0.0,0.0,0.0,0.0,0.0,0.0,0.0,0.0,0.0,0.0,0.0,0.0,0.0,0.0,0.0,0.0,0.0,0.0,0.0,0.0,0.0,0.0,0.0,0.0,0.0,0.0,0.0,0.0,0.0,0.0,0.0,0.0,0.0,0.0,0.0,0.0,0.0,0.0,0.0,0.0,0.0,0.0,0.0,0.0,0.0,0.0,0.0,0.0,0.0,0.0,0.0,0.0,0.0,0.0,0.0,0.0,0.0,0.0,0.0,0.0,0
1.0,0.9038461446762085,0.5288461446762085,0.25641027092933655,0.1923076957464218,0.2628205120563507,0.2307692319154739,0.2307692319154739,0.19871795177459717,0.2211538404226303,0.2083333283662796,0.21474358439445496,0.20512820780277252,0.21474358439445496,0.21153846383094788,0.2275640964508057,0.21474358439445496,0.2211538404226303,0.2307692319154739,0.24358974397182465,0.2371794879436493,0.25641027092933655,0.2532051205635071,0.26602563261985773,0.26923078298568726,0.28525641560554504,0.28205129504203796,0.30128204822540283,0.31410256028175354,0.32692307233810425,0.33974358439445496,0.3621794879436493,0.375,0.39102563261985773,0.39102563261985773,0.4070512950420379,0.41025641560554504,0.4070512950420379,0.38141027092933655,0.3653846085071564,0.33974358439445496,0.3173076808452606,0.2916666567325592,0.28525641560554504,0.26923078298568726,0.27243590354919434,0.2628205120563507,0.26602563261985773,0.25,0.25641027092933655,0.24679486453533173,0.2596153914928436,0.25,0.2596153914928436,0.25,0.25641027092933655,0.25,0.2628205120563507,0.25,0.2596153914928436,0.25,0.2532051205635071,0.25,0.2532051205635071,0.24679486453533173,0.25641027092933655,0.24679486453533173,0.25641027092933655,0.24358974397182465,0.24038460850715637,0.2371794879436493,0.24679486453533173,0.2371794879436493,0.24358974397182465,0.233974352478981,0.25,0.2371794879436493,0.24038460850715637,0.2371794879436493,0.24679486453533173,0.24038460850715637,0.24679486453533173,0.24038460850715637,0.25,0.24358974397182465,0.25,0.24038460850715637,0.25,0.24358974397182465,0.25,0.24038460850715637,0.2596153914928436,0.24038460850715637,0.25641027092933655,0.25,0.25,0.25,0.25641027092933655,0.25,0.25641027092933655,0.2532051205635071,0.2596153914928436,0.25,0.2532051205635071,0.2532051205635071,0.2628205120563507,0.24358974397182465,0.25641027092933655,0.25,0.2628205120563507,0.2532051205635071,0.2628205120563507,0.2532051205635071,0.26602563261985773,0.25641027092933655,0.27243590354919434,0.28525641560554504,0.3493589758872986,0.4262820482254028,0.5064102411270142,0.5256410241127014,0.4166666567325592,0.15705128014087677,0.0,0.048076923936605453,0.08653846383094788,0.05448717996478081,0.044871795922517776,0.016025641933083534,0.012820512987673283,0.05448717996478081,0.20192307233810425,0.2628205120563507,0.2756410241127014,0.28205129504203796,0.29487180709838867,0.3044871687889099,0.32371795177459717,0.3173076808452606,0.33974358439445496,0.34294870495796204,0.3621794879436493,0.37179487943649286,0.378205120563507,0.39423078298568726,0.4198718070983886,0.4326923191547394,0.467948704957962,0.4903846085071564,0.5160256624221802,0.5512820482254028,0.0,0.0,0.0,0.0,0.0,0.0,0.0,0.0,0.0,0.0,0.0,0.0,0.0,0.0,0.0,0.0,0.0,0.0,0.0,0.0,0.0,0.0,0.0,0.0,0.0,0.0,0.0,0.0,0.0,0.0,0.0,0.0,0.0,0.0,0.0,0.0,0
1.0,0.51902174949646,0.13695652782917023,0.15815217792987823,0.20489130914211273,0.2760869562625885,0.302173912525177,0.27771738171577454,0.3271739184856415,0.3304347693920135,0.31576088070869446,0.342934787273407,0.3179347813129425,0.35326087474823,0.3478260934352875,0.32608696818351746,0.3494565188884735,0.33152174949645996,0.355434775352478,0.3701086938381195,0.354891300201416,0.3684782683849334,0.375543475151062,0.417391300201416,0.416847825050354,0.40489131212234497,0.42010870575904846,0.4375,0.44565218687057495,0.4532608687877655,0.4402174055576325,0.4331521689891815,0.4195652306079865,0.4440217316150666,0.41086956858634943,0.36141303181648254,0.35108694434165955,0.32608696818351746,0.34565216302871704,0.342934787273407,0.3125,0.323913037776947,0.321739137172699,0.3375000059604645,0.33695653080940247,0.30869564414024353,0.31956520676612854,0.3282608687877655,0.32989129424095154,0.32499998807907104,0.29891303181648254,0.31413042545318604,0.31630435585975647,0.31576088070869446,0.321739137172699,0.30978259444236755,0.30543479323387146,0.3081521689891815,0.30380433797836304,0.31032609939575195,0.3070652186870575,0.31521740555763245,0.29836955666542053,0.3070652186870575,0.3076086938381195,0.3065217435359955,0.3076086938381195,0.29728260636329645,0.31521740555763245,0.30597826838493347,0.3184782564640045,0.35978260636329645,0.36195650696754456,0.34510868787765503,0.39402174949646,0.375543475151062,0.323369562625885,0.32989129424095154,0.323369562625885,0.32065218687057495,0.2858695685863495,0.2559782564640045,0.2657608687877655,0.26358696818351746,0.29456523060798645,0.2657608687877655,0.10706521570682524,0.0,0.021739130839705467,0.3798913061618805,0.8048912882804871,0.8706521987915038,0.439673900604248,0.11304347962141036,0.10815217345952988,0.20434781908988953,0.2766304314136505,0.291304349899292,0.31902173161506653,0.30543479323387146,0.301630437374115,0.33478260040283203,0.32065218687057495,0.3478260934352875,0.354347825050354,0.3380434811115265,0.34076085686683655,0.33423912525177,0.3581521809101105,0.3586956560611725,0.0,0.0,0.0,0.0,0.0,0.0,0.0,0.0,0.0,0.0,0.0,0.0,0.0,0.0,0.0,0.0,0.0,0.0,0.0,0.0,0.0,0.0,0.0,0.0,0.0,0.0,0.0,0.0,0.0,0.0,0.0,0.0,0.0,0.0,0.0,0.0,0.0,0.0,0.0,0.0,0.0,0.0,0.0,0.0,0.0,0.0,0.0,0.0,0.0,0.0,0.0,0.0,0.0,0.0,0.0,0.0,0.0,0.0,0.0,0.0,0.0,0.0,0.0,0.0,0.0,0.0,0.0,0.0,0.0,0.0,0.0,0.0,0.0,0.0,0.0,0.0,0.0,1
0.8894736766815186,0.74210524559021,0.6804511547088623,0.5330827236175537,0.518796980381012,0.48796993494033813,0.44962406158447266,0.5105262994766235,0.44887217879295355,0.4714285731315613,0.4781954884529114,0.4112781882286072,0.5172932147979736,0.6969924569129944,0.9300751686096193,0.699999988079071,0.2503759264945984,0.0,0.04436090216040611,0.21654134988784793,0.31278195977211,0.33834585547447205,0.4345864653587342,0.4112781882286072,0.42105263471603394,0.4383458793163299,0.42406013607978815,0.481203019618988,0.410526305437088,0.43007519841194153,0.446616530418396,0.4112781882286072,0.46541354060173035,0.41503760218620306,0.4345864653587342,0.4443609118461609,0.4112781882286072,0.4548872113227844,0.4022556245326996,0.4187969863414765,0.4263157844543457,0.38646617531776434,0.427819550037384,0.35112783312797546,0.37368419766426086,0.3819548785686493,0.3436090350151062,0.4000000059604645,0.325563907623291,0.325563907623291,0.3684210479259491,0.3631578981876373,0.42556390166282654,0.38120299577713007,0.410526305437088,0.4187969863414765,0.3759398460388183,0.4481202960014343,0.42556390166282654,0.4345864653587342,0.45789474248886114,0.43233081698417664,0.4684210419654846,0.41203007102012634,0.43609023094177246,0.45263159275054926,0.40451127290725714,0.46541354060173035,0.42330828309059143,0.4571428596973419,0.47443610429763794,0.44285714626312256,0.49548873305320734,0.4661654233932495,0.49624061584472656,0.6218045353889465,0.6278195381164551,0.6691729426383972,0.7150375843048096,0.825563907623291,0.8646616339683533,0.7015037536621094,0.6263157725334167,0.5082706809043884,0.518796980381012,0.5015037655830383,0.46541354060173035,0.49398496747016907,0.4661654233932495,0.4721804559230805,0.5060150623321533,0.4293233156204224,0.5225563645362854,0.7548872232437135,1.0,0.9225564002990723,0.0,0.0,0.0,0.0,0.0,0.0,0.0,0.0,0.0,0.0,0.0,0.0,0.0,0.0,0.0,0.0,0.0,0.0,0.0,0.0,0.0,0.0,0.0,0.0,0.0,0.0,0.0,0.0,0.0,0.0,0.0,0.0,0.0,0.0,0.0,0.0,0.0,0.0,0.0,0.0,0.0,0.0,0.0,0.0,0.0,0.0,0.0,0.0,0.0,0.0,0.0,0.0,0.0,0.0,0.0,0.0,0.0,0.0,0.0,0.0,0.0,0.0,0.0,0.0,0.0,0.0,0.0,0.0,0.0,0.0,0.0,0.0,0.0,0.0,0.0,0.0,0.0,0.0,0.0,0.0,0.0,0.0,0.0,0.0,0.0,0.0,0.0,0.0,0.0,0.0,0.0,1
1.0,0.7511885762214661,0.3470681309700012,0.0808240920305252,0.0,0.09984152019023897,0.1711568981409073,0.14421552419662476,0.12202852964401244,0.1267828792333603,0.11568938195705412,0.11410459876060484,0.11410459876060484,0.10142631083726882,0.10776545107364655,0.1172741651535034,0.11885895580053328,0.13629159331321716,0.1616481840610504,0.17432646453380585,0.19968304038047793,0.22503961622714996,0.2583201229572296,0.30586370825767517,0.334389865398407,0.36608558893203735,0.4120443761348724,0.43423137068748474,0.4437400996685028,0.46909666061401367,0.4865293204784394,0.49762281775474543,0.48494452238082886,0.4722662568092346,0.464342325925827,0.44849446415901184,0.41362917423248285,0.40095087885856623,0.3851030170917511,0.35816165804862976,0.335974633693695,0.30586370825767517,0.29001584649086,0.2820919156074524,0.2646592855453491,0.2662440538406372,0.2805071175098419,0.27733755111694336,0.29001584649086,0.31378763914108276,0.339144229888916,0.3613312244415283,0.3724247217178345,0.370839923620224,0.35974642634391785,0.3106180727481842,0.2678288519382477,0.2678288519382477,0.26941362023353577,0.2725831866264343,0.27733755111694336,0.26941362023353577,0.2757527828216553,0.28526148200035095,0.2583201229572296,0.27892234921455383,0.4453248679637909,0.6877971291542053,0.9619651436805725,0.9667195081710817,0.6101426482200623,0.2535657584667206,0.08557844907045364,0.09191758930683137,0.2060221880674362,0.2218700498342514,0.185419961810112,0.18066561222076416,0.18066561222076416,0.18066561222076416,0.18066561222076416,0.16640253365039823,0.0,0.0,0.0,0.0,0.0,0.0,0.0,0.0,0.0,0.0,0.0,0.0,0.0,0.0,0.0,0.0,0.0,0.0,0.0,0.0,0.0,0.0,0.0,0.0,0.0,0.0,0.0,0.0,0.0,0.0,0.0,0.0,0.0,0.0,0.0,0.0,0.0,0.0,0.0,0.0,0.0,0.0,0.0,0.0,0.0,0.0,0.0,0.0,0.0,0.0,0.0,0.0,0.0,0.0,0.0,0.0,0.0,0.0,0.0,0.0,0.0,0.0,0.0,0.0,0.0,0.0,0.0,0.0,0.0,0.0,0.0,0.0,0.0,0.0,0.0,0.0,0.0,0.0,0.0,0.0,0.0,0.0,0.0,0.0,0.0,0.0,0.0,0.0,0.0,0.0,0.0,0.0,0.0,0.0,0.0,0.0,0.0,0.0,0.0,0.0,0.0,0.0,0.0,0.0,0.0,0
0.971204161643982,0.6034031510353088,0.13154450058937073,0.000654450268484652,0.1246727779507637,0.1776832491159439,0.2967931926250458,0.3772905766963958,0.44208115339279175,0.45157068967819214,0.4607329964637756,0.45942407846450806,0.4666230380535126,0.4643324613571167,0.4705497324466706,0.46825915575027466,0.4708769619464874,0.4751308858394622,0.4803664982318878,0.48527488112449646,0.49541884660720825,0.5029450058937073,0.5160340070724487,0.525850772857666,0.5353403091430664,0.5451570749282837,0.5546466112136841,0.5605366230010986,0.5615183115005493,0.5484293103218079,0.5376309156417847,0.5232329964637756,0.5186518430709839,0.5101439952850342,0.5052356123924255,0.5078533887863159,0.5055628418922424,0.4986911118030548,0.5003272294998169,0.49672773480415344,0.49901831150054926,0.5,0.4996727705001831,0.49901831150054926,0.49705496430397034,0.49640053510665894,0.4977094233036042,0.518324613571167,0.5395942330360413,0.5461387634277344,0.5445026159286499,0.5317408442497253,0.5071989297866821,0.4820026159286499,0.45157068967819214,0.46400523185729986,0.48723822832107544,0.4842931926250458,0.4918193817138672,0.4914921522140503,0.48691099882125854,0.47774869203567505,0.47643980383872986,0.47382199764251715,0.474149227142334,0.47774869203567505,0.47905758023262024,0.5533376932144165,0.7126963138580322,0.7784686088562012,0.7601439952850343,1.0,0.6924083828926086,0.2221858650445938,0.0,0.09064136445522308,0.19371727108955383,0.2686518430709839,0.37074607610702515,0.44633507728576655,0.46564134955406195,0.4744764268398285,0.4731675386428833,0.4708769619464874,0.46956807374954224,0.0,0.0,0.0,0.0,0.0,0.0,0.0,0.0,0.0,0.0,0.0,0.0,0.0,0.0,0.0,0.0,0.0,0.0,0.0,0.0,0.0,0.0,0.0,0.0,0.0,0.0,0.0,0.0,0.0,0.0,0.0,0.0,0.0,0.0,0.0,0.0,0.0,0.0,0.0,0.0,0.0,0.0,0.0,0.0,0.0,0.0,0.0,0.0,0.0,0.0,0.0,0.0,0.0,0.0,0.0,0.0,0.0,0.0,0.0,0.0,0.0,0.0,0.0,0.0,0.0,0.0,0.0,0.0,0.0,0.0,0.0,0.0,0.0,0.0,0.0,0.0,0.0,0.0,0.0,0.0,0.0,0.0,0.0,0.0,0.0,0.0,0.0,0.0,0.0,0.0,0.0,0.0,0.0,0.0,0.0,0.0,0.0,0.0,0.0,0.0,0.0,0.0,1
1.0,0.9139999747276306,0.5680000185966492,0.2939999997615814,0.25200000405311584,0.2160000056028366,0.16200000047683716,0.16799999773502347,0.16799999773502347,0.1599999964237213,0.14800000190734863,0.1560000032186508,0.15800000727176666,0.15399999916553497,0.1379999965429306,0.14800000190734863,0.14800000190734863,0.1340000033378601,0.13199999928474426,0.1340000033378601,0.11999999731779099,0.10599999874830245,0.08399999886751175,0.07000000029802322,0.05000000074505805,0.03200000151991844,0.019999999552965164,0.014000000432133675,0.006000000052154064,0.0,0.0,0.02800000086426735,0.0560000017285347,0.07999999821186066,0.11599999666213988,0.1599999964237213,0.19599999487400055,0.2080000042915344,0.22599999606609344,0.23999999463558197,0.24799999594688416,0.23800000548362732,0.24600000679492953,0.24799999594688416,0.25999999046325684,0.25600001215934753,0.24799999594688416,0.25200000405311584,0.2540000081062317,0.2419999986886978,0.257999986410141,0.2619999945163727,0.27399998903274536,0.2980000078678131,0.3100000023841858,0.328000009059906,0.3700000047683716,0.36800000071525574,0.3440000116825104,0.35600000619888306,0.3580000102519989,0.3179999887943268,0.2759999930858612,0.25999999046325684,0.24600000679492953,0.2339999973773956,0.2339999973773956,0.23199999332427976,0.2419999986886978,0.2540000081062317,0.3700000047683716,0.6240000128746033,0.8320000171661378,0.9679999947547911,0.9380000233650208,0.671999990940094,0.3400000035762787,0.2300000041723251,0.2300000041723251,0.20000000298023224,0.17800000309944153,0.181999996304512,0.17000000178813934,0.17000000178813934,0.17000000178813934,0.15399999916553497,0.15000000596046448,0.15800000727176666,0.0,0.0,0.0,0.0,0.0,0.0,0.0,0.0,0.0,0.0,0.0,0.0,0.0,0.0,0.0,0.0,0.0,0.0,0.0,0.0,0.0,0.0,0.0,0.0,0.0,0.0,0.0,0.0,0.0,0.0,0.0,0.0,0.0,0.0,0.0,0.0,0.0,0.0,0.0,0.0,0.0,0.0,0.0,0.0,0.0,0.0,0.0,0.0,0.0,0.0,0.0,0.0,0.0,0.0,0.0,0.0,0.0,0.0,0.0,0.0,0.0,0.0,0.0,0.0,0.0,0.0,0.0,0.0,0.0,0.0,0.0,0.0,0.0,0.0,0.0,0.0,0.0,0.0,0.0,0.0,0.0,0.0,0.0,0.0,0.0,0.0,0.0,0.0,0.0,0.0,0.0,0.0,0.0,0.0,0.0,0.0,0.0,0.0,0.0,0
0.9968553185462952,0.7955974936485292,0.3050314486026764,0.08176100999116898,0.03144654259085655,0.04088050499558449,0.028301887214183807,0.006289307959377766,0.015723271295428276,0.006289307959377766,0.025157231837511063,0.015723271295428276,0.028301887214183807,0.022012578323483467,0.034591194242239,0.022012578323483467,0.044025156646966934,0.04716981202363968,0.069182388484478,0.07547169923782349,0.0974842756986618,0.11320754885673522,0.14465409517288208,0.16352201998233795,0.20125785470008847,0.223270446062088,0.24842767417430875,0.2704402506351471,0.3050314486026764,0.31446540355682373,0.3301886916160583,0.3113207519054413,0.28930819034576416,0.2515723407268524,0.20754717290401456,0.1666666716337204,0.14150942862033844,0.09433962404727936,0.08490566164255142,0.05345911905169487,0.050314463675022125,0.034591194242239,0.034591194242239,0.01886792480945587,0.034591194242239,0.03144654259085655,0.050314463675022125,0.04088050499558449,0.05974842607975006,0.07232704758644104,0.09433962404727936,0.11006288975477219,0.1320754736661911,0.1257861703634262,0.1320754736661911,0.10377358645200728,0.08490566164255142,0.04716981202363968,0.04088050499558449,0.012578615918755531,0.006289307959377766,0.0,0.01886792480945587,0.003144653979688883,0.022012578323483467,0.025157231837511063,0.03144654259085655,0.044025156646966934,0.25471699237823486,0.650943398475647,1.0,0.5817610025405884,0.13522012531757355,0.009433962404727936,0.028301887214183807,0.012578615918755531,0.009433962404727936,0.0,0.006289307959377766,0.006289307959377766,0.015723271295428276,0.015723271295428276,0.028301887214183807,0.01886792480945587,0.0,0.0,0.0,0.0,0.0,0.0,0.0,0.0,0.0,0.0,0.0,0.0,0.0,0.0,0.0,0.0,0.0,0.0,0.0,0.0,0.0,0.0,0.0,0.0,0.0,0.0,0.0,0.0,0.0,0.0,0.0,0.0,0.0,0.0,0.0,0.0,0.0,0.0,0.0,0.0,0.0,0.0,0.0,0.0,0.0,0.0,0.0,0.0,0.0,0.0,0.0,0.0,0.0,0.0,0.0,0.0,0.0,0.0,0.0,0.0,0.0,0.0,0.0,0.0,0.0,0.0,0.0,0.0,0.0,0.0,0.0,0.0,0.0,0.0,0.0,0.0,0.0,0.0,0.0,0.0,0.0,0.0,0.0,0.0,0.0,0.0,0.0,0.0,0.0,0.0,0.0,0.0,0.0,0.0,0.0,0.0,0.0,0.0,0.0,0.0,0.0,0.0,0.0,0
0.9058513045310974,0.6876375079154968,0.39331281185150146,0.1385833770036697,0.1350637972354889,0.056753188371658325,0.029476461932063103,0.011878574267029762,0.018037835136055943,0.00263968319632113,0.0,0.007919049821794033,0.014958204701542854,0.019357677549123764,0.015838099643588066,0.031236251816153526,0.022437307983636856,0.03827540576457977,0.05851297825574875,0.058952923864126205,0.07743071019649506,0.07919050008058547,0.10250769555568696,0.12670479714870453,0.13902331888675687,0.15618126094341278,0.175978884100914,0.18213814496994016,0.22041355073451996,0.22085349261760712,0.22041355073451996,0.2226132899522781,0.22657281160354617,0.21249450743198392,0.19445666670799255,0.17025956511497495,0.1460624784231186,0.13374395668506622,0.11086669564247131,0.10030796378850936,0.0998680144548416,0.0989881232380867,0.09546854346990584,0.10646722465753557,0.0981082245707512,0.09062912315130232,0.1020677536725998,0.0989881232380867,0.10118785500526428,0.0989881232380867,0.09722833335399629,0.09722833335399629,0.10162780433893204,0.10558732599020004,0.10074791312217712,0.09458865225315093,0.0981082245707512,0.09942806512117386,0.10162780433893204,0.08490981161594391,0.08183018118143082,0.0800703912973404,0.08183018118143082,0.08930928260087967,0.0699516087770462,0.08490981161594391,0.08710954338312149,0.08490981161594391,0.09238891303539276,0.08886933326721191,0.0981082245707512,0.09942806512117386,0.09634843468666077,0.10338759422302246,0.0959084928035736,0.10646722465753557,0.10734711587429047,0.10338759422302246,0.1069071739912033,0.10646722465753557,0.1139463260769844,0.0989881232380867,0.1099868044257164,0.11350637674331664,0.1179058477282524,0.11526616662740707,0.11438627541065216,0.11966563761234283,0.11658600717782974,0.1179058477282524,0.14738231897354123,0.15222173929214475,0.18213814496994016,0.20501539111137393,0.20765508711338043,0.23053233325481415,0.2019357681274414,0.19049714505672455,0.14430268108844757,0.15222173929214475,0.15838100016117096,0.13638363778591156,0.10910690575838088,0.10426748543977736,0.10030796378850936,0.1069071739912033,0.09018917381763458,0.09062912315130232,0.1020677536725998,0.0981082245707512,0.0959084928035736,0.08710954338312149,0.18433788418769836,0.3321601450443268,0.5785305500030518,0.9414870142936708,1.0,0.8046634197235107,0.500220000743866,0.23317201435565948,0.2560492753982544,0.14870215952396393,0.12934447824954987,0.11658600717782974,0.10734711587429047,0.10426748543977736,0.09414870291948318,0.0959084928035736,0.10338759422302246,0.10866695642471312,0.11702595651149748,0.10866695642471312,0.11306643486022948,0.1240651085972786,0.14474263787269592,0.1491421014070511,0.1619005650281906,0.16717994213104248,0.0,0.0,0.0,0.0,0.0,0.0,0.0,0.0,0.0,0.0,0.0,0.0,0.0,0.0,0.0,0.0,0.0,0.0,0.0,0.0,0.0,0.0,0.0,0.0,0.0,0.0,0.0,0.0,0.0,0.0,0.0,0.0,0.0,0.0,0.0,0.0,0.0,0.0,0.0,0.0,0.0,0.0,0.0,0.0,0.0,0.0,0.0,0.0,0.0,1
0.9833934903144836,0.7415162324905396,0.23682311177253723,0.0,0.156678706407547,0.3010830283164978,0.3595667779445648,0.454873651266098,0.4389891624450683,0.4823104739189148,0.5090252757072449,0.49458482861518854,0.5480144619941711,0.5140794515609741,0.5350180268287659,0.5371841192245483,0.5090252757072449,0.5638989210128784,0.5003610253334045,0.5090252757072449,0.5249097347259521,0.4909747242927551,0.5400722026824951,0.5010830163955688,0.5075812339782715,0.5263537764549255,0.48880866169929504,0.513357400894165,0.4411552250385285,0.4252707660198211,0.4144404232501984,0.3487364649772644,0.3768953084945678,0.32129964232444763,0.31624549627304077,0.3400722146034241,0.30830323696136475,0.363898903131485,0.3249097466468811,0.33212995529174805,0.3400722146034241,0.31624549627304077,0.3711191415786743,0.32996389269828796,0.3523465692996979,0.388447642326355,0.3675090372562408,0.4238267242908478,0.3920577764511108,0.42599278688430786,0.45270758867263794,0.42671480774879456,0.4823104739189148,0.4635379016399383,0.48664259910583496,0.5140794515609741,0.4902527034282684,0.5371841192245483,0.5039710998535156,0.528519868850708,0.5768952965736389,0.6122743487358093,0.694584846496582,0.6613718271255493,0.7487364411354066,0.8534296154975891,0.8288808465003968,0.7480144500732422,0.603610098361969,0.5588447451591492,0.5299639105796814,0.4685920476913452,0.4967508912086486,0.4613718390464782,0.4657039642333984,0.48664259910583496,0.4368230998516082,0.44548735022544866,0.48880866169929504,0.7436823248863221,1.0,0.6620938777923584,0.2664259970188141,0.08158844709396361,0.1552346497774124,0.3119133710861206,0.363898903131485,0.4685920476913452,0.46425992250442505,0.48086643218994146,0.5140794515609741,0.4823104739189148,0.5263537764549255,0.496028870344162,0.5119133591651917,0.5422382950782776,0.5025270581245422,0.5371841192245483,0.5010830163955688,0.5068591833114624,0.5277978181838989,0.49458482861518854,0.5270758271217346,0.4916967451572418,0.48953068256378174,0.5061371922492981,0.4671480059623718,0.4837545156478882,0.4332129955291748,0.4339350163936615,0.447653442621231,0.3971119225025177,0.430324912071228,0.3862815797328949,0.38050541281700134,0.39350181818008423,0.3494584858417511,0.3833934962749482,0.3588447570800781,0.36895307898521423,0.39350181818008423,0.35523465275764465,0.4000000059604645,0.35667869448661804,0.35523465275764465,0.3703971207141876,0.3371841013431549,0.4000000059604645,0.3711191415786743,0.3891696631908417,0.4108303189277649,0.3465704023838043,0.3848375380039215,0.34079423546791077,0.3350180387496948,0.347292423248291,0.29747292399406433,0.3277978301048279,0.298194944858551,0.3119133710861206,0.3501805067062378,0.3754512667655945,0.4440433084964752,0.4072202146053314,0.0,0.0,0.0,0.0,0.0,0.0,0.0,0.0,0.0,0.0,0.0,0.0,0.0,0.0,0.0,0.0,0.0,0.0,0.0,0.0,0.0,0.0,0.0,0.0,0.0,0.0,0.0,0.0,0.0,0.0,0.0,0.0,0.0,0.0,0.0,0.0,0.0,0.0,0.0,0.0,0.0,0.0,0.0,1
1.0,0.8790931701660156,0.6221662759780884,0.23929470777511597,0.09823677688837053,0.07556675374507904,0.04785894230008125,0.03778337687253952,0.007556675001978873,0.020151132717728615,0.010075566358864307,0.02518891729414463,0.02518891729414463,0.045340050011873245,0.04785894230008125,0.07052896916866302,0.08816120773553848,0.11083123087882996,0.10831234604120255,0.14609572291374207,0.17632241547107697,0.20151133835315704,0.22418135404586792,0.249370276927948,0.249370276927948,0.249370276927948,0.23173803091049192,0.23173803091049192,0.2216624617576599,0.21914356946945193,0.20403023064136505,0.20151133835315704,0.19395466148853305,0.26448363065719604,0.2770780920982361,0.3123425841331482,0.39294710755348206,0.7078085541725159,0.8488665223121643,0.97481107711792,0.9193954467773436,0.735516369342804,0.498740553855896,0.20151133835315704,0.04030226543545723,0.04030226543545723,0.0,0.0,0.0,0.0,0.0,0.0,0.0,0.0,0.0,0.0,0.0,0.0,0.0,0.0,0.0,0.0,0.0,0.0,0.0,0.0,0.0,0.0,0.0,0.0,0.0,0.0,0.0,0.0,0.0,0.0,0.0,0.0,0.0,0.0,0.0,0.0,0.0,0.0,0.0,0.0,0.0,0.0,0.0,0.0,0.0,0.0,0.0,0.0,0.0,0.0,0.0,0.0,0.0,0.0,0.0,0.0,0.0,0.0,0.0,0.0,0.0,0.0,0.0,0.0,0.0,0.0,0.0,0.0,0.0,0.0,0.0,0.0,0.0,0.0,0.0,0.0,0.0,0.0,0.0,0.0,0.0,0.0,0.0,0.0,0.0,0.0,0.0,0.0,0.0,0.0,0.0,0.0,0.0,0.0,0.0,0.0,0.0,0.0,0.0,0.0,0.0,0.0,0.0,0.0,0.0,0.0,0.0,0.0,0.0,0.0,0.0,0.0,0.0,0.0,0.0,0.0,0.0,0.0,0.0,0.0,0.0,0.0,0.0,0.0,0.0,0.0,0.0,0.0,0.0,0.0,0.0,0.0,0.0,0.0,0.0,0.0,0.0,0.0,0.0,0.0,0.0,0
0.9960212111473085,0.7685676217079164,0.19429707527160645,0.18103447556495664,0.03580901771783829,0.1472148597240448,0.11140583455562592,0.07161803543567657,0.07758620381355287,0.06763925403356552,0.08355437964200972,0.08952254801988602,0.06896551698446274,0.08554376661777496,0.10676392912864684,0.09549071639776228,0.10809018462896348,0.12002652883529664,0.13129973411560059,0.08421750366687775,0.1180371344089508,0.13726790249347687,0.1399204283952713,0.14323607087135315,0.1478779911994934,0.17374005913734436,0.20225463807582855,0.18899203836917877,0.22679045796394348,0.2652519941329956,0.3143236041069031,0.31962865591049194,0.3527851402759552,0.32758620381355286,0.34350132942199707,0.36273208260536194,0.34217506647109985,0.34283819794654846,0.33554375171661377,0.2944297194480896,0.24801060557365415,0.2347480058670044,0.21220159530639648,0.18236073851585388,0.14456233382225037,0.14124669134616852,0.16511936485767365,0.1253315657377243,0.12068965286016464,0.12931033968925476,0.13461539149284363,0.16379310190677643,0.13726790249347687,0.10809018462896348,0.1405835598707199,0.1478779911994934,0.14986737072467804,0.13793103396892548,0.15450929105281827,0.14920423924922943,0.14456233382225037,0.13594163954257965,0.15782493352890015,0.10212201625108717,0.12665782868862152,0.11405835300683977,0.12334217876195908,0.11140583455562592,0.10941644757986067,0.15981432795524597,0.08023872971534729,0.11405835300683977,0.11604774743318556,0.13660477101802823,0.09018567949533463,0.06432360410690308,0.11671087890863419,0.11472148448228836,0.18766577541828156,0.1763925701379776,0.18567639589309692,0.27652519941329956,0.21551723778247833,0.2506631314754486,0.23938992619514465,0.21021220088005063,0.14986737072467804,0.1027851477265358,0.07294429838657379,0.0,0.03978779911994934,0.02453580871224403,0.031167108565568924,0.05371352657675743,0.04774535819888115,0.010610079392790794,0.008620689623057842,0.08488063514232635,0.3302387297153473,0.8454906940460205,1.0,0.34084880352020264,0.13527850806713104,0.06167108938097954,0.07294429838657379,0.08554376661777496,0.06763925403356552,0.06962864845991135,0.09946949779987337,0.051061008125543594,0.06100795790553093,0.08885941654443741,0.08355437964200972,0.0809018537402153,0.06498673558235168,0.07891246676445007,0.08488063514232635,0.1187002658843994,0.0,0.0,0.0,0.0,0.0,0.0,0.0,0.0,0.0,0.0,0.0,0.0,0.0,0.0,0.0,0.0,0.0,0.0,0.0,0.0,0.0,0.0,0.0,0.0,0.0,0.0,0.0,0.0,0.0,0.0,0.0,0.0,0.0,0.0,0.0,0.0,0.0,0.0,0.0,0.0,0.0,0.0,0.0,0.0,0.0,0.0,0.0,0.0,0.0,0.0,0.0,0.0,0.0,0.0,0.0,0.0,0.0,0.0,0.0,0.0,0.0,0.0,0.0,0.0,0.0,0.0,0.0,0.0,0.0,1
0.9765396118164062,0.8475073575973511,0.36070382595062256,0.038123168051242835,0.0498533733189106,0.07331378012895584,0.04398826882243157,0.03519061580300331,0.038123168051242835,0.04692082107067108,0.02346041053533554,0.029325513169169422,0.01173020526766777,0.03519061580300331,0.0029325513169169426,0.02346041053533554,0.008797653950750828,0.014662756584584711,0.02346041053533554,0.04692082107067108,0.02346041053533554,0.041055720299482346,0.032258063554763794,0.0498533733189106,0.058651026338338845,0.08211144059896469,0.07624633610248567,0.10557185113430025,0.09677419066429138,0.12609970569610596,0.12609970569610596,0.11436950415372849,0.1026392951607704,0.14076246321201324,0.1319648027420044,0.1524926722049713,0.14369501173496246,0.1700879782438278,0.12609970569610596,0.12609970569610596,0.09090909361839294,0.0997067466378212,0.09384164214134216,0.08211144059896469,0.058651026338338845,0.07331378012895584,0.06451612710952759,0.07331378012895584,0.0498533733189106,0.07331378012895584,0.05278592556715011,0.06451612710952759,0.055718474090099335,0.06451612710952759,0.055718474090099335,0.08504398912191391,0.058651026338338845,0.07917888462543488,0.08211144059896469,0.08504398912191391,0.0674486830830574,0.09090909361839294,0.058651026338338845,0.09090909361839294,0.06451612710952759,0.07038123160600662,0.05278592556715011,0.058651026338338845,0.058651026338338845,0.0674486830830574,0.058651026338338845,0.0997067466378212,0.07624633610248567,0.08797653764486314,0.07624633610248567,0.09384164214134216,0.08504398912191391,0.14076246321201324,0.2228738963603973,0.41935482621192927,0.7214076519012451,1.0,0.7888563275337219,0.31085044145584106,0.0,0.07331378012895584,0.07624633610248567,0.055718474090099335,0.03519061580300331,0.03519061580300331,0.03519061580300331,0.058651026338338845,0.014662756584584711,0.038123168051242835,0.005865102633833885,0.029325513169169422,0.008797653950750828,0.026392962783575055,0.005865102633833885,0.014662756584584711,0.0,0.0,0.0,0.0,0.0,0.0,0.0,0.0,0.0,0.0,0.0,0.0,0.0,0.0,0.0,0.0,0.0,0.0,0.0,0.0,0.0,0.0,0.0,0.0,0.0,0.0,0.0,0.0,0.0,0.0,0.0,0.0,0.0,0.0,0.0,0.0,0.0,0.0,0.0,0.0,0.0,0.0,0.0,0.0,0.0,0.0,0.0,0.0,0.0,0.0,0.0,0.0,0.0,0.0,0.0,0.0,0.0,0.0,0.0,0.0,0.0,0.0,0.0,0.0,0.0,0.0,0.0,0.0,0.0,0.0,0.0,0.0,0.0,0.0,0.0,0.0,0.0,0.0,0.0,0.0,0.0,0.0,0.0,0.0,0.0,0.0,0.0,0
0.9730496406555176,0.6971631050109863,0.16382978856563568,0.0,0.042553190141916275,0.041843973100185394,0.02529550902545452,0.02009456232190132,0.014420803636312485,0.018912529572844505,0.02009456232190132,0.01489361748099327,0.022458629682660103,0.02576832100749016,0.027895981445908543,0.0347517728805542,0.03546099364757538,0.041134752333164215,0.04799054190516472,0.053900707513093955,0.06737588346004486,0.07257683575153351,0.0796690285205841,0.08439715951681137,0.09408983588218689,0.10803782194852828,0.11560283601284028,0.13475176692008972,0.15437352657318115,0.17092198133468628,0.193853422999382,0.2037824988365173,0.22742316126823425,0.23900708556175232,0.24397163093090057,0.2382978796958923,0.2104018926620483,0.1808510571718216,0.14491726458072662,0.11394798755645752,0.08794326335191727,0.06288415938615799,0.05059101805090904,0.04042553156614303,0.035224586725234985,0.03427895903587341,0.026477541774511337,0.031442079693078995,0.02955082803964615,0.027895981445908543,0.035224586725234985,0.035224586725234985,0.03995271772146225,0.037352245301008224,0.03569740056991577,0.03380614519119263,0.03404255211353302,0.03120567463338375,0.03049645386636257,0.027659574523568153,0.028605200350284576,0.02813238836824894,0.02813238836824894,0.027895981445908543,0.025059102103114128,0.027659574523568153,0.021513001993298527,0.02293144166469574,0.02600472792983055,0.029314421117305756,0.026950353756546978,0.02009456232190132,0.021749408915638924,0.02033096924424171,0.017257682979106903,0.021276595070958138,0.013475176878273489,0.01985815539956093,0.01489361748099327,0.01773049682378769,0.021040190011262894,0.017966903746128082,0.021040190011262894,0.019621750339865685,0.01843971572816372,0.023167848587036133,0.020567376166582108,0.03286052122712135,0.03758865222334862,0.04208038002252579,0.04066193848848342,0.047754138708114624,0.05130023509263992,0.048463355749845505,0.046808511018753045,0.04609929025173187,0.04302600398659706,0.030260046944022175,0.022458629682660103,0.026950353756546978,0.023167848587036133,0.025059102103114128,0.023404255509376522,0.021749408915638924,0.021040190011262894,0.024113474413752556,0.022222222760319706,0.023167848587036133,0.010165484622120856,0.06619385629892349,0.34562647342681885,0.6534278988838196,1.0,0.8567376136779785,0.35200944542884827,0.08297872543334961,0.07234042882919312,0.09054373204708101,0.06855791807174683,0.0621749423444271,0.06453900784254074,0.0624113492667675,0.06784869730472565,0.0730496421456337,0.07423167675733566,0.08037824928760529,0.0869976356625557,0.09101654589176178,0.09574468433856964,0.10638298094272612,0.10945626348257063,0.10638298094272612,0.0,0.0,0.0,0.0,0.0,0.0,0.0,0.0,0.0,0.0,0.0,0.0,0.0,0.0,0.0,0.0,0.0,0.0,0.0,0.0,0.0,0.0,0.0,0.0,0.0,0.0,0.0,0.0,0.0,0.0,0.0,0.0,0.0,0.0,0.0,0.0,0.0,0.0,0.0,0.0,0.0,0.0,0.0,0.0,0.0,0.0,0.0,0.0,0.0,0.0,0.0,0.0,0.0,0.0,0.0,0
1.0,0.9195803999900816,0.5069929957389832,0.251748263835907,0.26923078298568726,0.24475523829460144,0.2482517510652542,0.2377622425556183,0.23426572978496552,0.22727273404598236,0.220279723405838,0.2237762212753296,0.21678321063518524,0.21678321063518524,0.23426572978496552,0.2097902148962021,0.220279723405838,0.2132867127656937,0.2377622425556183,0.2482517510652542,0.2657342553138733,0.28321677446365356,0.31468531489372253,0.31468531489372253,0.32867133617401123,0.3426573574542999,0.3636363744735718,0.3811188936233521,0.3916083872318268,0.4195804297924042,0.440559446811676,0.4440559446811676,0.46503496170043945,0.4615384638309478,0.4615384638309478,0.4440559446811676,0.4475524425506592,0.4195804297924042,0.41608390212059027,0.3811188936233521,0.3881118893623352,0.36713287234306335,0.36713287234306335,0.35314685106277466,0.3496503531932831,0.3426573574542999,0.33916082978248596,0.32867133617401123,0.3426573574542999,0.32867133617401123,0.3356643319129944,0.35314685106277466,0.35664334893226624,0.3636363744735718,0.37412586808204645,0.3881118893623352,0.3881118893623352,0.3951048851013183,0.3986014127731323,0.3846153914928436,0.3776223659515381,0.3216783106327057,0.2027972042560577,0.0839160829782486,0.03846153989434242,0.0,0.05244755372405052,0.15034964680671692,0.3076923191547394,0.36713287234306335,0.3041957914829254,0.2482517510652542,0.2377622425556183,0.21678321063518524,0.21678321063518524,0.2237762212753296,0.24125874042510984,0.22727273404598236,0.2622377574443817,0.279720276594162,0.29720279574394226,0.3041957914829254,0.3321678340435028,0.3426573574542999,0.37412586808204645,0.4020979106426239,0.440559446811676,0.4755244851112366,0.5174825191497803,0.5419580340385437,0.6013985872268677,0.0,0.0,0.0,0.0,0.0,0.0,0.0,0.0,0.0,0.0,0.0,0.0,0.0,0.0,0.0,0.0,0.0,0.0,0.0,0.0,0.0,0.0,0.0,0.0,0.0,0.0,0.0,0.0,0.0,0.0,0.0,0.0,0.0,0.0,0.0,0.0,0.0,0.0,0.0,0.0,0.0,0.0,0.0,0.0,0.0,0.0,0.0,0.0,0.0,0.0,0.0,0.0,0.0,0.0,0.0,0.0,0.0,0.0,0.0,0.0,0.0,0.0,0.0,0.0,0.0,0.0,0.0,0.0,0.0,0.0,0.0,0.0,0.0,0.0,0.0,0.0,0.0,0.0,0.0,0.0,0.0,0.0,0.0,0.0,0.0,0.0,0.0,0.0,0.0,0.0,0.0,0.0,0.0,0.0,0.0,0.0,0
0.9697346687316895,0.9311774373054504,0.41210612654685974,0.2176616936922073,0.13681592047214508,0.12769486010074615,0.2072968482971191,0.21475952863693237,0.20356550812721252,0.2118573784828186,0.20936982333660123,0.2189054787158966,0.22968490421772003,0.24004974961280823,0.2359038144350052,0.2172470986843109,0.2450248748064041,0.23175787925720215,0.2259535640478134,0.2454394698143005,0.22636815905570984,0.2155887186527252,0.22719734907150269,0.22056384384632113,0.22844113409519196,0.20398010313510895,0.19900497794151303,0.1894693225622177,0.16749584674835205,0.1546434462070465,0.1044776141643524,0.08043117821216582,0.05721392855048179,0.020315092056989666,0.011608623899519444,0.0,0.03275290131568909,0.05514096096158027,0.0713101178407669,0.12935324013233185,0.1442786008119583,0.1737147569656372,0.19154228270053864,0.1981757879257202,0.22305141389369965,0.21849088370800016,0.23051409423351288,0.2292703092098236,0.23009949922561643,0.2512437701225281,0.2466832548379898,0.2483416199684143,0.26326701045036316,0.25580430030822754,0.274461030960083,0.2653399705886841,0.2653399705886841,0.27155888080596924,0.2620232105255127,0.2773631811141968,0.2678275406360626,0.267412930727005,0.2657545506954193,0.267412930727005,0.2769486010074615,0.2686567306518554,0.2653399705886841,0.2686567306518554,0.2587064802646637,0.28026533126831055,0.26616916060447693,0.27321726083755493,0.2777777910232544,0.25248757004737854,0.27363184094429016,0.2553897202014923,0.2686567306518554,0.2669983506202698,0.2599502503871918,0.27155888080596924,0.2669983506202698,0.26326701045036316,0.267412930727005,0.2537313401699066,0.27902156114578247,0.30514097213745117,0.32752901315689087,0.333747923374176,0.33043116331100464,0.36442786455154413,0.37935322523117065,0.3851575553417206,0.3681592047214508,0.35655057430267334,0.3507462739944458,0.2947761118412018,0.25746268033981323,0.24751244485378265,0.22802653908729553,0.24378108978271484,0.23051409423351288,0.2359038144350052,0.23424543440341947,0.21268656849861145,0.24087893962860107,0.170398011803627,0.13930347561836243,0.2396351546049118,0.6359867453575134,1.0,0.8507462739944458,0.3909618556499482,0.3142620325088501,0.1770315021276474,0.20563846826553345,0.24875621497631073,0.23466002941131592,0.24709784984588623,0.23466002941131592,0.25953564047813416,0.26119402050971985,0.2582918703556061,0.2620232105255127,0.25290215015411377,0.27529022097587585,0.264096200466156,0.2582918703556061,0.26990050077438354,0.25580430030822754,0.2777777910232544,0.2694858908653259,0.26451078057289124,0.25787729024887085,0.25082919001579285,0.26616916060447693,0.0,0.0,0.0,0.0,0.0,0.0,0.0,0.0,0.0,0.0,0.0,0.0,0.0,0.0,0.0,0.0,0.0,0.0,0.0,0.0,0.0,0.0,0.0,0.0,0.0,0.0,0.0,0.0,0.0,0.0,0.0,0.0,0.0,0.0,0.0,0.0,0.0,0.0,0.0,0.0,0.0,0.0,0.0,0.0,0.0,0.0,0.0,0.0,0.0,0.0,0.0,0.0,1
0.9725000262260435,0.6725000143051147,0.18000000715255737,0.0,0.05000000074505805,0.054999999701976776,0.014999999664723871,0.014999999664723871,0.017500000074505802,0.025000000372529026,0.025000000372529026,0.02250000089406967,0.014999999664723871,0.032499998807907104,0.03500000014901161,0.03500000014901161,0.03750000149011612,0.03999999910593033,0.03999999910593033,0.03999999910593033,0.04749999940395355,0.07000000029802322,0.06499999761581421,0.06499999761581421,0.06750000268220901,0.07500000298023224,0.08749999850988387,0.08250000327825546,0.07500000298023224,0.08749999850988387,0.10000000149011612,0.09749999642372133,0.10999999940395357,0.11999999731779099,0.14249999821186063,0.13750000298023224,0.13249999284744263,0.1274999976158142,0.13249999284744263,0.13249999284744263,0.13500000536441803,0.13500000536441803,0.13500000536441803,0.1299999952316284,0.14249999821186063,0.1574999988079071,0.13500000536441803,0.13249999284744263,0.14499999582767487,0.14749999344348907,0.1574999988079071,0.15000000596046448,0.14249999821186063,0.17000000178813934,0.1675000041723251,0.16249999403953552,0.15000000596046448,0.1675000041723251,0.16500000655651093,0.197500005364418,0.20000000298023224,0.22499999403953552,0.2475000023841858,0.24250000715255737,0.22499999403953552,0.24250000715255737,0.2300000041723251,0.1825000047683716,0.13249999284744263,0.125,0.13500000536441803,0.1274999976158142,0.11999999731779099,0.13249999284744263,0.10499999672174452,0.11249999701976776,0.26499998569488525,0.6100000143051147,1.0,0.9325000047683717,0.41999998688697815,0.11500000208616255,0.11500000208616255,0.13249999284744263,0.07249999791383745,0.07999999821186066,0.08749999850988387,0.07750000059604645,0.059999998658895486,0.07500000298023224,0.09000000357627869,0.07000000029802322,0.04500000178813934,0.06499999761581421,0.0,0.0,0.0,0.0,0.0,0.0,0.0,0.0,0.0,0.0,0.0,0.0,0.0,0.0,0.0,0.0,0.0,0.0,0.0,0.0,0.0,0.0,0.0,0.0,0.0,0.0,0.0,0.0,0.0,0.0,0.0,0.0,0.0,0.0,0.0,0.0,0.0,0.0,0.0,0.0,0.0,0.0,0.0,0.0,0.0,0.0,0.0,0.0,0.0,0.0,0.0,0.0,0.0,0.0,0.0,0.0,0.0,0.0,0.0,0.0,0.0,0.0,0.0,0.0,0.0,0.0,0.0,0.0,0.0,0.0,0.0,0.0,0.0,0.0,0.0,0.0,0.0,0.0,0.0,0.0,0.0,0.0,0.0,0.0,0.0,0.0,0.0,0.0,0.0,0.0,0.0,0.0,0.0,0
0.9918962717056276,0.8573743700981141,0.235008105635643,0.07941652834415436,0.2901134490966797,0.2965964376926422,0.3111831545829773,0.32576984167099,0.3095623850822449,0.30470016598701477,0.31280389428138733,0.3160453736782074,0.31928688287734985,0.31928688287734985,0.3225283622741699,0.3322528302669525,0.33387356996536255,0.33387356996536255,0.3468395471572876,0.35008102655410767,0.35008102655410767,0.3565640151500702,0.3662884831428528,0.37763372063636774,0.38411667943000793,0.3857374489307403,0.39546191692352295,0.4068071246147156,0.41166937351226807,0.41491085290908813,0.4294975697994232,0.4327390491962433,0.4376012980937958,0.44246354699134827,0.45867097377777094,0.4732576906681061,0.46353322267532354,0.4440842866897583,0.4294975697994232,0.41166937351226807,0.39384117722511286,0.3760129511356354,0.3630470037460327,0.3565640151500702,0.3468395471572876,0.34521880745887756,0.34846028685569763,0.34846028685569763,0.3468395471572876,0.3517017960548401,0.3581847548484802,0.3646677434444427,0.3662884831428528,0.3695299923419952,0.3760129511356354,0.37763372063636774,0.3760129511356354,0.37439221143722534,0.3824959397315979,0.38087520003318787,0.3760129511356354,0.3727714717388153,0.3760129511356354,0.37439221143722534,0.3662884831428528,0.35494327545166016,0.3630470037460327,0.3581847548484802,0.35494327545166016,0.35008102655410767,0.3517017960548401,0.35494327545166016,0.34521880745887756,0.34359806776046753,0.34846028685569763,0.3517017960548401,0.3419772982597351,0.33549433946609497,0.3419772982597351,0.3517017960548401,0.3403565585613251,0.33549433946609497,0.34359806776046753,0.3468395471572876,0.3403565585613251,0.33387356996536255,0.3419772982597351,0.34521880745887756,0.33873581886291504,0.3403565585613251,0.34521880745887756,0.3581847548484802,0.35980552434921265,0.3679092526435852,0.3873581886291504,0.3889789283275604,0.3727714717388153,0.3679092526435852,0.3646677434444427,0.3646677434444427,0.3517017960548401,0.34359806776046753,0.34359806776046753,0.3533225357532501,0.3630470037460327,0.4084278643131256,0.5931928753852844,0.9222041964530944,1.0,0.5235008001327515,0.0,0.20583468675613403,0.3095623850822449,0.2998379170894623,0.32901135087013245,0.33387356996536255,0.31766611337661743,0.3160453736782074,0.33387356996536255,0.33873581886291504,0.337115079164505,0.33549433946609497,0.35008102655410767,0.3581847548484802,0.35494327545166016,0.35494327545166016,0.3630470037460327,0.3727714717388153,0.3760129511356354,0.0,0.0,0.0,0.0,0.0,0.0,0.0,0.0,0.0,0.0,0.0,0.0,0.0,0.0,0.0,0.0,0.0,0.0,0.0,0.0,0.0,0.0,0.0,0.0,0.0,0.0,0.0,0.0,0.0,0.0,0.0,0.0,0.0,0.0,0.0,0.0,0.0,0.0,0.0,0.0,0.0,0.0,0.0,0.0,0.0,0.0,0.0,0.0,0.0,0.0,0.0,0.0,0.0,0.0,0.0,0.0,0.0,0.0,0
1.0,0.9020501375198364,0.49886104464530945,0.29669705033302307,0.312642365694046,0.2260819971561432,0.13041001558303833,0.16116173565387723,0.20728929340839383,0.1617312133312225,0.19817768037319183,0.22949886322021484,0.17539863288402557,0.21070614457130432,0.2089977264404297,0.25626423954963684,0.26366743445396423,0.22209566831588745,0.2932801842689514,0.2164009064435959,0.23348519206047055,0.27562642097473145,0.2505694627761841,0.25398632884025574,0.21526196599006653,0.21697038412094116,0.20558086037635803,0.2198177725076675,0.22209566831588745,0.19988609850406647,0.21867881715297696,0.21753986179828644,0.1890660524368286,0.22892938554286957,0.20159453153610227,0.20216400921344757,0.21753986179828644,0.1719817817211151,0.20045557618141177,0.17824600636959076,0.1719817817211151,0.19134396314620972,0.1406605988740921,0.15660592913627625,0.14123006165027618,0.16343963146209717,0.2425968050956726,0.24943052232265472,0.30694761872291565,0.30182233452796936,0.2870159447193146,0.2892938554286957,0.28246012330055237,0.2744874656200409,0.21013666689395905,0.2642368972301483,0.2351936250925064,0.1623006761074066,0.1771070659160614,0.14179953932762146,0.14407745003700256,0.14692482352256775,0.12927107512950897,0.1190204992890358,0.07232346385717392,0.04384965822100639,0.0,0.21070614457130432,0.7972665429115297,0.9555808901786805,0.7904328107833862,0.3980637788772583,0.2522779107093811,0.3325740396976471,0.1719817817211151,0.18280182778835297,0.21526196599006653,0.21355353295803073,0.2471526265144348,0.223234623670578,0.23177675902843475,0.23234623670578,0.2568337023258209,0.303530752658844,0.2693621814250946,0.3206150233745575,0.3171981871128082,0.3137813210487366,0.33883827924728394,0.29669705033302307,0.323462426662445,0.3063781261444092,0.28018224239349365,0.2961275577545166,0.2574031949043274,0.22437357902526855,0.2380409985780716,0.24316628277301788,0.2796127498149872,0.26366743445396423,0.2818906605243683,0.29498860239982605,0.27505695819854736,0.31947606801986694,0.27277904748916626,0.2989749312400818,0.2915717661380768,0.26366743445396423,0.2910022735595703,0.2642368972301483,0.2665148079395294,0.2699316740036011,0.2665148079395294,0.3228929340839386,0.3320045471191406,0.3707289397716522,0.4299544394016266,0.4134396314620971,0.38610479235649103,0.357061505317688,0.38211846351623535,0.0,0.0,0.0,0.0,0.0,0.0,0.0,0.0,0.0,0.0,0.0,0.0,0.0,0.0,0.0,0.0,0.0,0.0,0.0,0.0,0.0,0.0,0.0,0.0,0.0,0.0,0.0,0.0,0.0,0.0,0.0,0.0,0.0,0.0,0.0,0.0,0.0,0.0,0.0,0.0,0.0,0.0,0.0,0.0,0.0,0.0,0.0,0.0,0.0,0.0,0.0,0.0,0.0,0.0,0.0,0.0,0.0,0.0,0.0,0.0,0.0,0.0,0.0,0.0,0.0,0.0,1
0.9247655272483823,0.5318299531936646,0.33246856927871704,0.1804031133651733,0.18379564583301544,0.19916184246540067,0.1997605264186859,0.19397325813770297,0.19756536185741425,0.19157852232456207,0.1921772062778473,0.1965675503015518,0.1963679939508438,0.20514866709709167,0.1989622861146927,0.20415087044239044,0.2099381387233734,0.21333067119121552,0.22211135923862457,0.2201157510280609,0.22849731147289276,0.2410696446895599,0.24905209243297577,0.2664138972759247,0.2767910659313202,0.2929554879665375,0.3091199398040771,0.3179006278514862,0.3338654935359955,0.3352624177932739,0.33985233306884766,0.34204748272895813,0.3282777965068817,0.3143085241317749,0.28297746181488037,0.2596288025379181,0.23907403647899628,0.2201157510280609,0.21213330328464508,0.19517062604427335,0.19337457418441772,0.1937737017869949,0.18678906559944153,0.1899820417165756,0.1827978491783142,0.18599082529544833,0.1889842301607132,0.18678906559944153,0.1885851174592972,0.182598277926445,0.18638993799686432,0.19117940962314603,0.19078028202056885,0.1957693099975586,0.19357413053512573,0.1937737017869949,0.1957693099975586,0.19078028202056885,0.19317501783370972,0.18379564583301544,0.1861903816461563,0.18678906559944153,0.18120135366916656,0.18459388613700864,0.17740969359874725,0.1684294492006302,0.18140092492103577,0.17840750515460968,0.18319696187973025,0.17661145329475403,0.17641189694404602,0.1869886219501495,0.19736579060554504,0.21153461933135984,0.21053682267665863,0.2125324308872223,0.2231091558933258,0.22430652379989624,0.23927359282970428,0.21951706707477567,0.2071442753076553,0.17980442941188812,0.16403912007808685,0.16383954882621765,0.15485930442810059,0.15026940405368805,0.15386150777339935,0.15146677196025848,0.15406106412410736,0.14707642793655396,0.1492716073989868,0.15126721560955048,0.14687687158584595,0.12652164697647095,0.0,0.04350429028272629,0.2632209062576294,0.6308122277259827,1.0,0.6585512161254883,0.41169425845146174,0.19816404581069944,0.15885053575038907,0.18778686225414276,0.18519257009029388,0.182398721575737,0.18180003762245175,0.18080224096775055,0.18758730590343475,0.18519257009029388,0.18798643350601196,0.1921772062778473,0.1921772062778473,0.19716623425483704,0.20035921037197113,0.20913989841938016,0.2169227749109268,0.22051486372947693,0.23169028759002683,0.23448413610458377,0.2478547245264053,0.2608261704444885,0.0,0.0,0.0,0.0,0.0,0.0,0.0,0.0,0.0,0.0,0.0,0.0,0.0,0.0,0.0,0.0,0.0,0.0,0.0,0.0,0.0,0.0,0.0,0.0,0.0,0.0,0.0,0.0,0.0,0.0,0.0,0.0,0.0,0.0,0.0,0.0,0.0,0.0,0.0,0.0,0.0,0.0,0.0,0.0,0.0,0.0,0.0,0.0,0.0,0.0,0.0,0.0,0.0,0.0,0.0,0.0,0.0,0.0,0.0,0.0,0.0,0.0,0.0,0.0,0.0,0
0.9659863710403441,0.9067055583000184,0.6355684995651245,0.3932620584964752,0.24522189795970917,0.15160350501537323,0.11985746771097185,0.08940719068050385,0.09005507081747055,0.06673145294189453,0.07904113829135895,0.08746355772018433,0.06705539673566818,0.07774538546800613,0.07644962519407272,0.06575963646173477,0.08390022814273834,0.08033689856529236,0.06997084617614746,0.07256235927343369,0.06770326942205429,0.07191447913646698,0.07126659899950027,0.06640751659870148,0.07612568885087967,0.07677356898784637,0.07968901842832565,0.10884353518486022,0.10042112320661543,0.13540653884410858,0.1318432092666626,0.1538710743188858,0.16067379713058472,0.17978620529174805,0.1684483289718628,0.17168772220611572,0.16067379713058472,0.1470683515071869,0.136702299118042,0.1269841343164444,0.12633624672889707,0.11370262503623962,0.11078717559576035,0.10042112320661543,0.09523809701204301,0.10171687602996826,0.106252022087574,0.1007450595498085,0.09361840039491653,0.1013929396867752,0.106252022087574,0.10884353518486022,0.11758989095687866,0.10463232547044754,0.12989957630634308,0.10463232547044754,0.12147716432809828,0.12633624672889707,0.12633624672889707,0.1221250370144844,0.12892776727676392,0.13508260250091553,0.14609652757644653,0.1733074188232422,0.19501133263111112,0.19954648613929749,0.22416585683822632,0.1794622540473938,0.14382895827293396,0.11823777109384535,0.10851959884166716,0.10333657264709473,0.10722383856773376,0.10657596588134764,0.09394233673810959,0.09199870377779007,0.054421767592430115,0.0,0.07482992857694626,0.3002915382385254,0.681243896484375,1.0,0.7936508059501648,0.5413022637367249,0.3291221261024475,0.19080013036727905,0.13022351264953613,0.10398445278406145,0.08292841166257858,0.07612568885087967,0.0634920671582222,0.08033689856529236,0.06673145294189453,0.06737933307886124,0.06543570011854172,0.053449951112270355,0.0537738911807537,0.054097831249237054,0.0,0.0,0.0,0.0,0.0,0.0,0.0,0.0,0.0,0.0,0.0,0.0,0.0,0.0,0.0,0.0,0.0,0.0,0.0,0.0,0.0,0.0,0.0,0.0,0.0,0.0,0.0,0.0,0.0,0.0,0.0,0.0,0.0,0.0,0.0,0.0,0.0,0.0,0.0,0.0,0.0,0.0,0.0,0.0,0.0,0.0,0.0,0.0,0.0,0.0,0.0,0.0,0.0,0.0,0.0,0.0,0.0,0.0,0.0,0.0,0.0,0.0,0.0,0.0,0.0,0.0,0.0,0.0,0.0,0.0,0.0,0.0,0.0,0.0,0.0,0.0,0.0,0.0,0.0,0.0,0.0,0.0,0.0,0.0,0.0,0.0,0.0,0.0,0.0,0
0.91304349899292,0.8666666746139526,0.4884057939052582,0.06376811861991882,0.04202898591756821,0.19710144400596616,0.25652173161506653,0.24347825348377228,0.24347825348377228,0.25362318754196167,0.24347825348377228,0.24202898144721985,0.239130437374115,0.2362318783998489,0.24347825348377228,0.24782608449459076,0.24202898144721985,0.24637681245803833,0.25652173161506653,0.2550724744796753,0.2492753565311432,0.25652173161506653,0.2637681066989898,0.2637681066989898,0.2652173936367035,0.27246376872062683,0.2811594307422638,0.2869565188884735,0.2855072319507599,0.30579710006713867,0.32608696818351746,0.3231883943080902,0.31014493107795715,0.30434781312942505,0.3072463870048523,0.29855072498321533,0.2811594307422638,0.27971014380455017,0.27391305565834045,0.2710144817829132,0.2637681066989898,0.26231884956359863,0.2637681066989898,0.25652173161506653,0.2550724744796753,0.25362318754196167,0.2594202756881714,0.2666666805744171,0.25652173161506653,0.2492753565311432,0.26231884956359863,0.2652173936367035,0.2550724744796753,0.2637681066989898,0.2666666805744171,0.26231884956359863,0.2550724744796753,0.260869562625885,0.2637681066989898,0.2637681066989898,0.260869562625885,0.2666666805744171,0.25797101855278015,0.2550724744796753,0.25217390060424805,0.25797101855278015,0.27246376872062683,0.28405797481536865,0.27971014380455017,0.28985506296157837,0.3072463870048523,0.30434781312942505,0.291304349899292,0.29855072498321533,0.291304349899292,0.2681159377098083,0.2594202756881714,0.25217390060424805,0.24637681245803833,0.2507246434688568,0.2550724744796753,0.269565224647522,0.28405797481536865,0.2927536368370056,0.31014493107795715,0.3391304314136505,0.373913049697876,0.4115942120552063,0.4420289993286133,0.5246376991271973,0.717391312122345,0.9521738886833191,1.0,0.6333333253860474,0.11739130318164824,0.0,0.16376811265945435,0.25217390060424805,0.24492754042148593,0.23188406229019165,0.23478260636329648,0.2405797094106674,0.24637681245803833,0.24637681245803833,0.23768116533756256,0.22753623127937317,0.23478260636329648,0.239130437374115,0.2362318783998489,0.0,0.0,0.0,0.0,0.0,0.0,0.0,0.0,0.0,0.0,0.0,0.0,0.0,0.0,0.0,0.0,0.0,0.0,0.0,0.0,0.0,0.0,0.0,0.0,0.0,0.0,0.0,0.0,0.0,0.0,0.0,0.0,0.0,0.0,0.0,0.0,0.0,0.0,0.0,0.0,0.0,0.0,0.0,0.0,0.0,0.0,0.0,0.0,0.0,0.0,0.0,0.0,0.0,0.0,0.0,0.0,0.0,0.0,0.0,0.0,0.0,0.0,0.0,0.0,0.0,0.0,0.0,0.0,0.0,0.0,0.0,0.0,0.0,0.0,0.0,0.0,0.0,0.0,0
1.0,0.851111114025116,0.4733333289623261,0.39555555582046514,0.41555556654930115,0.3822222352027893,0.371111124753952,0.36444443464279175,0.36000001430511475,0.38444444537162786,0.3933333456516266,0.36666667461395264,0.35333332419395447,0.36888888478279114,0.36000001430511475,0.3777777850627899,0.371111124753952,0.40444445610046387,0.3422222137451172,0.3977777659893036,0.38444444537162786,0.3888888955116272,0.36444443464279175,0.3933333456516266,0.402222216129303,0.42222222685813904,0.41555556654930115,0.41333332657814026,0.41999998688697815,0.44888889789581293,0.428888887166977,0.47555556893348694,0.43111109733581543,0.43111109733581543,0.43111109733581543,0.4444444477558136,0.41999998688697815,0.4355555474758148,0.41111111640930176,0.40888887643814087,0.40444445610046387,0.40888887643814087,0.4066666662693024,0.43777778744697565,0.4444444477558136,0.4533333480358124,0.45111110806465154,0.4066666662693024,0.35555556416511536,0.30000001192092896,0.09333333373069765,0.0,0.035555556416511536,0.1088888868689537,0.15111111104488373,0.14444445073604584,0.16888888180255887,0.2133333384990692,0.25777778029441833,0.3199999928474426,0.36000001430511475,0.40888887643814087,0.4355555474758148,0.47777777910232544,0.47555556893348694,0.504444420337677,0.5,0.5333333611488342,0.5311111211776733,0.5711110830307007,0.5733333230018616,0.6133333444595337,0.6466666460037231,0.0,0.0,0.0,0.0,0.0,0.0,0.0,0.0,0.0,0.0,0.0,0.0,0.0,0.0,0.0,0.0,0.0,0.0,0.0,0.0,0.0,0.0,0.0,0.0,0.0,0.0,0.0,0.0,0.0,0.0,0.0,0.0,0.0,0.0,0.0,0.0,0.0,0.0,0.0,0.0,0.0,0.0,0.0,0.0,0.0,0.0,0.0,0.0,0.0,0.0,0.0,0.0,0.0,0.0,0.0,0.0,0.0,0.0,0.0,0.0,0.0,0.0,0.0,0.0,0.0,0.0,0.0,0.0,0.0,0.0,0.0,0.0,0.0,0.0,0.0,0.0,0.0,0.0,0.0,0.0,0.0,0.0,0.0,0.0,0.0,0.0,0.0,0.0,0.0,0.0,0.0,0.0,0.0,0.0,0.0,0.0,0.0,0.0,0.0,0.0,0.0,0.0,0.0,0.0,0.0,0.0,0.0,0.0,0.0,0.0,0.0,0.0,0.0,0.0,0
0.9324758648872375,0.6045016050338745,0.5155412554740906,0.3612004220485687,0.3569131791591644,0.36977490782737726,0.3772776126861572,0.41371917724609375,0.43086817860603327,0.38478028774261475,0.45016077160835266,0.41371917724609375,0.45337620377540594,0.45337620377540594,0.41050374507904047,0.4448017179965973,0.4640943109989166,0.4576634466648102,0.5058949589729309,0.4640943109989166,0.5026795268058777,0.5016077160835266,0.5112540125846863,0.521972119808197,0.4758842587471008,0.4651661217212677,0.46087887883186335,0.4351554214954376,0.4287245571613312,0.36227223277091974,0.350482314825058,0.2829582095146179,0.2518756687641144,0.26152196526527405,0.18649516999721527,0.2143622785806656,0.24115756154060364,0.2390139400959015,0.284030020236969,0.2786709666252136,0.3011789917945862,0.30653804540634155,0.3215433955192566,0.34297963976860046,0.3086816668510437,0.3172561526298523,0.33118972182273865,0.33118972182273865,0.3579849898815155,0.31511253118515015,0.30225080251693726,0.2958199381828308,0.30225080251693726,0.3301179111003876,0.2883172631263733,0.2883172631263733,0.2829582095146179,0.3097534775733948,0.2968917489051819,0.2668810188770294,0.29367631673812866,0.312968909740448,0.3772776126861572,0.37299033999443054,0.3579849898815155,0.4072883129119873,0.41050374507904047,0.5230439305305481,0.5551983118057251,0.4490889608860016,0.40621650218963623,0.3247588276863098,0.32368701696395874,0.3076098561286926,0.2508038580417633,0.2786709666252136,0.24008575081825256,0.2625937759876251,0.29046088457107544,0.24866023659706116,0.2754555344581604,0.2261521965265274,0.24330118298530576,0.2829582095146179,0.22722400724887848,0.22722400724887848,0.2443729937076569,0.2454448044300079,0.20471596717834473,0.003215434029698372,0.0,0.29903537034988403,0.6838156580924988,1.0,0.7224008440971375,0.8992497324943542,0.9924973249435424,0.7299035191535951,0.5305466055870056,0.4448017179965973,0.39013934135437006,0.3536977469921112,0.38370847702026367,0.3987138271331787,0.0,0.0,0.0,0.0,0.0,0.0,0.0,0.0,0.0,0.0,0.0,0.0,0.0,0.0,0.0,0.0,0.0,0.0,0.0,0.0,0.0,0.0,0.0,0.0,0.0,0.0,0.0,0.0,0.0,0.0,0.0,0.0,0.0,0.0,0.0,0.0,0.0,0.0,0.0,0.0,0.0,0.0,0.0,0.0,0.0,0.0,0.0,0.0,0.0,0.0,0.0,0.0,0.0,0.0,0.0,0.0,0.0,0.0,0.0,0.0,0.0,0.0,0.0,0.0,0.0,0.0,0.0,0.0,0.0,0.0,0.0,0.0,0.0,0.0,0.0,0.0,0.0,0.0,0.0,0.0,0.0,0.0,0.0,1
1.0,0.9399656653404237,0.5969125032424927,0.16981132328510284,0.156089186668396,0.20754717290401456,0.1938250362873077,0.18524871766567233,0.18867924809455872,0.1869639754295349,0.17495711147785187,0.1595197319984436,0.15094339847564697,0.156089186668396,0.15265865623950958,0.13036020100116727,0.1320754736661911,0.1320754736661911,0.1320754736661911,0.12692967057228088,0.11835334450006484,0.12006860971450804,0.11149228364229202,0.10120068490505219,0.08919382840394974,0.08747855573892593,0.0806174948811531,0.06689536571502686,0.061749570071697235,0.051457975059747696,0.030874785035848618,0.0137221273034811,0.0017152659129351375,0.0,0.015437392517924309,0.04116638004779816,0.08233276009559631,0.11320754885673522,0.13893653452396393,0.15265865623950958,0.16638079285621643,0.17495711147785187,0.18010291457176208,0.18010291457176208,0.17667238414287567,0.1818181872367859,0.18353344500064847,0.17667238414287567,0.17838765680789948,0.19210977852344513,0.19210977852344513,0.17838765680789948,0.1938250362873077,0.20754717290401456,0.20240136981010437,0.19554030895233152,0.1938250362873077,0.19210977852344513,0.19897083938121796,0.18353344500064847,0.18353344500064847,0.1938250362873077,0.19210977852344513,0.18524871766567233,0.18353344500064847,0.18524871766567233,0.1938250362873077,0.18867924809455872,0.18867924809455872,0.20240136981010437,0.20240136981010437,0.19554030895233152,0.1938250362873077,0.19897083938121796,0.19210977852344513,0.1869639754295349,0.18353344500064847,0.1938250362873077,0.1938250362873077,0.18524871766567233,0.1818181872367859,0.18867924809455872,0.1938250362873077,0.18867924809455872,0.1869639754295349,0.19039450585842133,0.1938250362873077,0.18353344500064847,0.16466552019119263,0.21955403685569763,0.43739280104637146,0.7409948706626893,0.9777015447616576,0.958833634853363,0.5917667150497437,0.12521441280841827,0.12006860971450804,0.18524871766567233,0.1595197319984436,0.14236706495285034,0.14236706495285034,0.14065180718898773,0.13550600409507751,0.12178387492895126,0.11835334450006484,0.12178387492895126,0.11835334450006484,0.09777015447616576,0.08919382840394974,0.09777015447616576,0.09262435883283617,0.09090909361839294,0.09948541969060896,0.0,0.0,0.0,0.0,0.0,0.0,0.0,0.0,0.0,0.0,0.0,0.0,0.0,0.0,0.0,0.0,0.0,0.0,0.0,0.0,0.0,0.0,0.0,0.0,0.0,0.0,0.0,0.0,0.0,0.0,0.0,0.0,0.0,0.0,0.0,0.0,0.0,0.0,0.0,0.0,0.0,0.0,0.0,0.0,0.0,0.0,0.0,0.0,0.0,0.0,0.0,0.0,0.0,0.0,0.0,0.0,0.0,0.0,0.0,0.0,0.0,0.0,0.0,0.0,0.0,0.0,0.0,0.0,0.0,0.0,0.0,0.0,0.0,0.0,0
0.650602400302887,0.4518072307109833,0.4277108311653138,0.41265061497688293,0.38554215431213373,0.35843372344970703,0.32831326127052307,0.27108433842658997,0.18674698472023007,0.10542168468236925,0.05120481923222542,0.04216867312788963,0.05722891539335251,0.07228915393352509,0.1204819306731224,0.18975903093814847,0.2469879537820816,0.27409639954566956,0.29216867685317993,0.2981927692890167,0.3132530152797699,0.3222891688346863,0.3162650465965271,0.3253012001514435,0.33734938502311707,0.35240963101387024,0.3674698770046234,0.37349396944046015,0.37951806187629694,0.38554215431213373,0.37951806187629694,0.3885542154312134,0.39457830786705017,0.39759036898612976,0.40662649273872375,0.41566264629364014,0.421686738729477,0.41566264629364014,0.4277108311653138,0.4277108311653138,0.4337349534034729,0.4457831382751465,0.4427710771560669,0.4457831382751465,0.4397590458393097,0.4457831382751465,0.4457831382751465,0.4367469847202301,0.421686738729477,0.41265061497688293,0.40662649273872375,0.39156627655029297,0.37650603055953974,0.36445784568786627,0.35843372344970703,0.34939759969711304,0.34638553857803345,0.33734938502311707,0.3253012001514435,0.3253012001514435,0.3222891688346863,0.3222891688346863,0.3222891688346863,0.3162650465965271,0.3102409541606903,0.3072289228439331,0.3072289228439331,0.3132530152797699,0.3072289228439331,0.3072289228439331,0.3072289228439331,0.3012048304080963,0.3012048304080963,0.2981927692890167,0.2981927692890167,0.2981927692890167,0.29518070816993713,0.28915661573410034,0.29216867685317993,0.28614458441734314,0.28915661573410034,0.28012049198150635,0.29216867685317993,0.28614458441734314,0.2831325232982635,0.28012049198150635,0.28614458441734314,0.28915661573410034,0.2831325232982635,0.28012049198150635,0.29216867685317993,0.28915661573410034,0.2981927692890167,0.3132530152797699,0.3885542154312134,1.0,0.4367469847202301,0.45481929183006287,0.40662649273872375,0.39156627655029297,0.36445784568786627,0.34036144614219666,0.3072289228439331,0.25,0.1295180767774582,0.0632530152797699,0.01204819232225418,0.009036144241690637,0.0,0.0030120480805635452,0.07228915393352509,0.15662650763988495,0.22289156913757324,0.2650602459907532,0.2831325232982635,0.0,0.0,0.0,0.0,0.0,0.0,0.0,0.0,0.0,0.0,0.0,0.0,0.0,0.0,0.0,0.0,0.0,0.0,0.0,0.0,0.0,0.0,0.0,0.0,0.0,0.0,0.0,0.0,0.0,0.0,0.0,0.0,0.0,0.0,0.0,0.0,0.0,0.0,0.0,0.0,0.0,0.0,0.0,0.0,0.0,0.0,0.0,0.0,0.0,0.0,0.0,0.0,0.0,0.0,0.0,0.0,0.0,0.0,0.0,0.0,0.0,0.0,0.0,0.0,0.0,0.0,0.0,0.0,0.0,0.0,0.0,0.0,1
1.0,0.6069411039352417,0.38418078422546387,0.2542372941970825,0.223567396402359,0.2768361568450928,0.25343018770217896,0.18482647836208344,0.15334947407245636,0.12187247723340988,0.12510088086128235,0.12913639843463895,0.13720741868019104,0.13720741868019104,0.13236480951309204,0.12671509385108948,0.15819208323955536,0.1525423675775528,0.13236480951309204,0.16868442296981812,0.15657788515090942,0.1832122653722763,0.19128328561782837,0.20419692993164065,0.2300242185592651,0.24455206096172333,0.2857142984867096,0.3075060546398163,0.3212268054485321,0.32768362760543823,0.3518967032432556,0.3736884593963623,0.3970944285392762,0.36319613456726074,0.3405972421169281,0.3075060546398163,0.25827279686927795,0.19774010777473447,0.1993543207645416,0.17352703213691711,0.1476997584104538,0.1355932205915451,0.13397902250289917,0.10573042929172516,0.12187247723340988,0.1355932205915451,0.10653752833604813,0.14850686490535736,0.1355932205915451,0.13478611409664154,0.15092816948890686,0.1646489053964615,0.09443099051713943,0.10653752833604813,0.12106537818908691,0.14124293625354767,0.12267958372831345,0.1355932205915451,0.13155770301818848,0.15092816948890686,0.11702986061573029,0.1331719160079956,0.10411622375249863,0.13720741868019104,0.11945117264986038,0.11460855603218079,0.09685230255126952,0.09120257943868637,0.12913639843463895,0.1000807136297226,0.08635997027158737,0.11380144953727722,0.041162226349115365,0.09362389147281647,0.08151735365390778,0.0742534324526787,0.08071024715900421,0.07990314811468124,0.0782889425754547,0.05326876416802406,0.07506053149700165,0.07586763799190521,0.08071024715900421,0.10411622375249863,0.08393865823745728,0.07667473703622818,0.11945117264986038,0.11299435049295424,0.07990314811468124,0.11783696711063384,0.09362389147281647,0.11783696711063384,0.08635997027158737,0.1380145251750946,0.09927360713481904,0.08313155919313431,0.06941081583499908,0.0782889425754547,0.05326876416802406,0.09604519605636597,0.1404358297586441,0.11138014495372772,0.162227600812912,0.1234866827726364,0.1380145251750946,0.06456819921731949,0.0879741758108139,0.06133979186415672,0.037933818995952606,0.03954802080988884,0.07183212041854858,0.04600484296679497,0.0451977401971817,0.0,0.016142049804329872,0.06537530571222305,0.15657788515090942,0.22518159449100497,0.46085551381111145,0.9507667422294616,0.6069411039352417,0.33494752645492554,0.22518159449100497,0.21226796507835388,0.2477804720401764,0.21630346775054932,0.11702986061573029,0.08071024715900421,0.10330911725759506,0.06779661029577255,0.1307506114244461,0.08151735365390778,0.07990314811468124,0.06941081583499908,0.11299435049295424,0.11299435049295424,0.13478611409664154,0.13640032708644867,0.15657788515090942,0.13397902250289917,0.13155770301818848,0.16303470730781555,0.19774010777473447,0.22033898532390592,0.20096851885318756,0.2526230812072754,0.0,0.0,0.0,0.0,0.0,0.0,0.0,0.0,0.0,0.0,0.0,0.0,0.0,0.0,0.0,0.0,0.0,0.0,0.0,0.0,0.0,0.0,0.0,0.0,0.0,0.0,0.0,0.0,0.0,0.0,0.0,0.0,0.0,0.0,0.0,0.0,0.0,0.0,0.0,0.0,0.0,1
0.9146341681480408,0.8333333134651184,0.565040647983551,0.353658527135849,0.3008130192756653,0.2804878056049347,0.24796748161315915,0.2439024448394775,0.23577235639095304,0.21544715762138367,0.20325203239917755,0.23170731961727145,0.23170731961727145,0.2601625919342041,0.2926829159259796,0.3008130192756653,0.3455284535884857,0.3739837408065796,0.38617885112762446,0.47560974955558777,0.4918699264526367,0.5121951103210449,0.5487805008888245,0.5813007950782776,0.5691056847572327,0.5853658318519592,0.5325203537940979,0.5284552574157715,0.47967478632926946,0.434959352016449,0.4065040647983551,0.3780487775802612,0.33739838004112244,0.34959349036216736,0.3252032399177551,0.3211382031440735,0.29674795269966125,0.28455284237861633,0.3048780560493469,0.3211382031440735,0.30894309282302856,0.3333333432674408,0.30894309282302856,0.3333333432674408,0.33739838004112244,0.353658527135849,0.3252032399177551,0.33739838004112244,0.30894309282302856,0.32926830649375916,0.33739838004112244,0.3414634168148041,0.3211382031440735,0.3252032399177551,0.3252032399177551,0.3252032399177551,0.3048780560493469,0.3008130192756653,0.3048780560493469,0.3333333432674408,0.3414634168148041,0.353658527135849,0.3658536672592163,0.39024388790130615,0.3739837408065796,0.38617885112762446,0.3739837408065796,0.3455284535884857,0.353658527135849,0.34959349036216736,0.31707316637039185,0.3130081295967102,0.3008130192756653,0.31707316637039185,0.3008130192756653,0.30894309282302856,0.29674795269966125,0.33739838004112244,0.32926830649375916,0.3617886304855346,0.3414634168148041,0.3739837408065796,0.3658536672592163,0.3658536672592163,0.35772356390953064,0.3658536672592163,0.3455284535884857,0.3658536672592163,0.3333333432674408,0.3699187040328979,0.353658527135849,0.3455284535884857,0.3211382031440735,0.3130081295967102,0.3008130192756653,0.31707316637039185,0.3008130192756653,0.3414634168148041,0.3414634168148041,0.3617886304855346,0.3739837408065796,0.4065040647983551,0.45121949911117554,0.6260162591934204,0.5203251838684082,0.2439024448394775,0.0,0.3211382031440735,0.6829268336296082,1.0,0.8739837408065795,0.6747967600822449,0.3739837408065796,0.27642276883125305,0.2520325183868408,0.25609755516052246,0.22357723116874695,0.21544715762138367,0.1991869956254959,0.22764228284358975,0.20325203239917755,0.2439024448394775,0.25609755516052246,0.29674795269966125,0.3130081295967102,0.3780487775802612,0.40243902802467346,0.434959352016449,0.44308942556381226,0.4918699264526367,0.0,0.0,0.0,0.0,0.0,0.0,0.0,0.0,0.0,0.0,0.0,0.0,0.0,0.0,0.0,0.0,0.0,0.0,0.0,0.0,0.0,0.0,0.0,0.0,0.0,0.0,0.0,0.0,0.0,0.0,0.0,0.0,0.0,0.0,0.0,0.0,0.0,0.0,0.0,0.0,0.0,0.0,0.0,0.0,0.0,0.0,0.0,0.0,0.0,0.0,0.0,0.0,0.0,0.0,0.0,0.0,0.0,0
1.0,0.994510531425476,0.7831655740737915,0.4377859234809875,0.31473010778427124,0.23833486437797544,0.1866422742605209,0.1724611222743988,0.15553522109985352,0.15462030470371246,0.14730100333690643,0.1468435525894165,0.15233302116394043,0.1537054032087326,0.16651418805122375,0.17520585656166077,0.18023787438869476,0.19075937569141388,0.19716377556324005,0.20677036046981812,0.21637694537639615,0.2250686138868332,0.24656908214092255,0.2557182013988495,0.27081426978111267,0.28591033816337585,0.293687105178833,0.30603843927383423,0.3087831735610962,0.308325707912445,0.28728270530700684,0.26029276847839355,0.23650503158569336,0.20585544407367704,0.18572735786437988,0.17520585656166077,0.15827997028827667,0.16102470457553864,0.15919487178325653,0.1605672389268875,0.1550777703523636,0.15324793756008148,0.1623970717191696,0.1550777703523636,0.16102470457553864,0.15965233743190765,0.15324793756008148,0.15736505389213562,0.15324793756008148,0.15233302116394043,0.15279048681259155,0.14638608694076538,0.15279048681259155,0.13723696768283844,0.14226898550987244,0.14226898550987244,0.13815186917781827,0.13357731699943542,0.12717291712760925,0.1299176514148712,0.14775846898555756,0.17657822370529175,0.20036596059799192,0.21271729469299316,0.2250686138868332,0.24473924934864044,0.22415371239185333,0.19579139351844788,0.1550777703523636,0.1312900334596634,0.10841719806194304,0.10430008918046953,0.09835315495729446,0.09332113713026047,0.07639524340629578,0.0,0.06907593458890915,0.3019213080406189,0.5338518023490906,0.9666056632995604,0.8911253213882446,0.6404391527175903,0.36093321442604065,0.25846293568611145,0.19167429208755493,0.14821591973304749,0.12900274991989136,0.12351326644420624,0.11390668153762816,0.11161939799785614,0.11893869936466216,0.1111619397997856,0.11665141582489012,0.11848124116659164,0.0,0.0,0.0,0.0,0.0,0.0,0.0,0.0,0.0,0.0,0.0,0.0,0.0,0.0,0.0,0.0,0.0,0.0,0.0,0.0,0.0,0.0,0.0,0.0,0.0,0.0,0.0,0.0,0.0,0.0,0.0,0.0,0.0,0.0,0.0,0.0,0.0,0.0,0.0,0.0,0.0,0.0,0.0,0.0,0.0,0.0,0.0,0.0,0.0,0.0,0.0,0.0,0.0,0.0,0.0,0.0,0.0,0.0,0.0,0.0,0.0,0.0,0.0,0.0,0.0,0.0,0.0,0.0,0.0,0.0,0.0,0.0,0.0,0.0,0.0,0.0,0.0,0.0,0.0,0.0,0.0,0.0,0.0,0.0,0.0,0.0,0.0,0.0,0.0,0.0,0.0,0.0,0.0,1
1.0,0.6543778777122498,0.2211981564760208,0.2519201338291168,0.2642089128494262,0.44162827730178833,0.5844854116439819,0.5660521984100342,0.5906298160552979,0.5791090726852417,0.5821812748908997,0.6136713027954102,0.5837173461914062,0.6075268983840942,0.6006144285202026,0.6029185652732849,0.6420890688896179,0.6113671064376831,0.6282641887664795,0.6359447240829468,0.6251919865608215,0.6658986210823059,0.638248860836029,0.6589861512184143,0.6612903475761414,0.6620583534240723,0.7050691246986389,0.6743471622467041,0.7004608511924744,0.6920123100280762,0.6812595725059509,0.7073732614517212,0.6651305556297302,0.6651305556297302,0.6328725218772888,0.6059907674789429,0.6420890688896179,0.602150559425354,0.6182795763015747,0.605222761631012,0.5921658873558044,0.6251919865608215,0.581413209438324,0.5967742204666138,0.5852534770965576,0.5745007395744324,0.6067588329315186,0.5683563947677612,0.5883256793022156,0.5745007395744324,0.5660521984100342,0.6044546961784363,0.5760368704795837,0.5867895483970642,0.5721966028213501,0.5552995204925537,0.5929339528083801,0.5652841925621033,0.5737327337265015,0.5568356513977051,0.539170503616333,0.5775729417800903,0.5399385690689087,0.5583717226982117,0.5430107712745667,0.5276497602462769,0.5714285969734192,0.5337941646575928,0.5468509793281555,0.5322580933570862,0.5153610110282898,0.5568356513977051,0.5168970823287964,0.5307219624519348,0.5099846124649048,0.48924732208251953,0.5384024381637573,0.5076804757118225,0.5261136889457703,0.5099846124649048,0.48694315552711487,0.5291858911514282,0.4969277977943421,0.49539169669151306,0.4938555955886841,0.4662058353424072,0.5038402676582336,0.4685099720954895,0.4831029176712036,0.47081413865089417,0.4508448541164398,0.4831029176712036,0.46159753203392034,0.46390169858932495,0.44854071736335754,0.4301075339317322,0.47081413865089417,0.43778800964355474,0.454685091972351,0.4823348820209503,0.4746543765068054,0.5307219624519348,0.5253456234931946,0.5714285969734192,0.5890936851501465,0.5307219624519348,0.5407066345214844,0.503072202205658,0.4554531574249267,0.41935482621192927,0.36866360902786255,0.39016896486282354,0.35330259799957275,0.3471582233905792,0.34639015793800354,0.3241167366504669,0.3640553057193756,0.3732718825340271,0.21044546365737915,0.0,0.2043010741472244,0.7864823341369629,0.48387095332145685,0.04454685002565384,0.029185868799686432,0.02611367218196392,0.2127496153116226,0.3095238208770752,0.3348694443702698,0.33640551567077637,0.32258063554763794,0.3586789667606354,0.3333333432674408,0.3341013789176941,0.3271889388561249,0.299539178609848,0.3410138189792633,0.31797236204147333,0.32872503995895386,0.0,0.0,0.0,0.0,0.0,0.0,0.0,0.0,0.0,0.0,0.0,0.0,0.0,0.0,0.0,0.0,0.0,0.0,0.0,0.0,0.0,0.0,0.0,0.0,0.0,0.0,0.0,0.0,0.0,0.0,0.0,0.0,0.0,0.0,0.0,0.0,0.0,0.0,0.0,0.0,0.0,0.0,0.0,0.0,0.0,0.0,0.0,0.0,1
0.9869281053543091,1.0,0.6699346303939819,0.3006536066532135,0.0,0.06209150329232216,0.1111111119389534,0.14705882966518402,0.2026143819093704,0.19607843458652496,0.17973856627941132,0.16339869797229767,0.16993464529514313,0.16993464529514313,0.1568627506494522,0.15359477698802948,0.15359477698802948,0.1437908560037613,0.1437908560037613,0.15359477698802948,0.14705882966518402,0.14705882966518402,0.1568627506494522,0.14052288234233856,0.14705882966518402,0.16339869797229767,0.1666666716337204,0.17320261895656583,0.18627451360225675,0.19281046092510223,0.1993464082479477,0.20915032923221588,0.23202614486217496,0.23856209218502045,0.258169949054718,0.27124184370040894,0.2810457646846771,0.28431373834609985,0.29411765933036804,0.2908496856689453,0.30392158031463623,0.29411765933036804,0.30392158031463623,0.2875817120075226,0.29738563299179077,0.29411765933036804,0.28431373834609985,0.2810457646846771,0.2777777910232544,0.2679738700389862,0.28431373834609985,0.26143792271614075,0.2647058963775635,0.258169949054718,0.2647058963775635,0.25163400173187256,0.23856209218502045,0.24509803950786593,0.23529411852359772,0.23529411852359772,0.24183006584644315,0.23856209218502045,0.24836601316928864,0.25163400173187256,0.2647058963775635,0.2647058963775635,0.27450981736183167,0.2777777910232544,0.29411765933036804,0.2810457646846771,0.29738563299179077,0.2908496856689453,0.3006536066532135,0.29738563299179077,0.30718955397605896,0.3006536066532135,0.3169934749603271,0.30718955397605896,0.3169934749603271,0.3137255012989044,0.3169934749603271,0.3169934749603271,0.3235294222831726,0.3235294222831726,0.32679739594459534,0.3169934749603271,0.32679739594459534,0.3235294222831726,0.33006536960601807,0.33006536960601807,0.3529411852359772,0.35947713255882263,0.3725490272045135,0.38562092185020447,0.4281045794486999,0.44117647409439087,0.46405228972435,0.4803921580314636,0.5065359473228455,0.44117647409439087,0.3725490272045135,0.30392158031463623,0.3137255012989044,0.30392158031463623,0.30718955397605896,0.29738563299179077,0.3104575276374817,0.30718955397605896,0.3137255012989044,0.3104575276374817,0.32679739594459534,0.3169934749603271,0.3202614486217499,0.3104575276374817,0.3660130798816681,0.5947712659835815,0.8169934749603271,0.8202614188194275,0.9150326848030089,0.9607843160629272,0.9934640526771544,0.745098054409027,0.4117647111415863,0.07189542800188065,0.06862745434045792,0.12745098769664764,0.19607843458652496,0.21895425021648407,0.22549019753932953,0.22549019753932953,0.21895425021648407,0.20588235557079315,0.21895425021648407,0.1993464082479477,0.2124183028936386,0.19607843458652496,0.20588235557079315,0.19281046092510223,0.2026143819093704,0.1993464082479477,0.2124183028936386,0.20588235557079315,0.2222222238779068,0.2124183028936386,0.0,0.0,0.0,0.0,0.0,0.0,0.0,0.0,0.0,0.0,0.0,0.0,0.0,0.0,0.0,0.0,0.0,0.0,0.0,0.0,0.0,0.0,0.0,0.0,0.0,0.0,0.0,0.0,0.0,0.0,0.0,0.0,0.0,0.0,0.0,0.0,0.0,0.0,0.0,0.0,0.0,0.0,0.0,0
0.9957228302955629,0.4987168610095978,0.14200171828269958,0.023952096700668335,0.1274593621492386,0.2382378131151199,0.29084688425064087,0.31137725710868835,0.31779298186302185,0.31822070479393005,0.329341322183609,0.33276304602622986,0.3421728014945984,0.3434559404850006,0.3507271111011505,0.34816083312034607,0.35286569595336914,0.35970914363861084,0.36826348304748535,0.38109496235847473,0.3926432728767395,0.40504705905914307,0.4217279851436615,0.4435414969921112,0.4683490097522735,0.49615055322647095,0.5209580659866333,0.5517536401748657,0.5680068731307983,0.5945252180099487,0.6086398363113403,0.6231821775436401,0.6321642398834229,0.6338751316070557,0.6112061738967896,0.5744225978851318,0.5273738503456116,0.47562018036842346,0.43284860253334045,0.3930709958076477,0.3648417592048645,0.3426005244255066,0.3340461850166321,0.3199315667152405,0.3190761208534241,0.31693756580352783,0.3079555034637451,0.31009408831596375,0.3122326731681824,0.30966639518737793,0.3071000874042511,0.314371258020401,0.3199315667152405,0.32249787449836725,0.3165098428726196,0.3220701515674591,0.3220701515674591,0.3190761208534241,0.3203592896461487,0.3156543970108032,0.31822070479393005,0.314371258020401,0.3071000874042511,0.3006843328475952,0.29811805486679077,0.29041916131973267,0.29640719294548035,0.30282291769981384,0.30496150255203247,0.29683491587638855,0.28913602232933044,0.28828057646751404,0.28186485171318054,0.2771599590778351,0.2801539897918701,0.27630454301834106,0.2792985439300537,0.28100940585136414,0.27587682008743286,0.28785285353660583,0.28785285353660583,0.28828057646751404,0.28785285353660583,0.28357571363449097,0.28785285353660583,0.28272026777267456,0.27331051230430603,0.27587682008743286,0.27544909715652466,0.28314799070358276,0.28186485171318054,0.2784431278705597,0.284431129693985,0.2865697145462036,0.27544909715652466,0.2711719274520874,0.27373823523521423,0.2715996503829956,0.2643284797668457,0.2707442343235016,0.26732251048088074,0.26090675592422485,0.2707442343235016,0.26646706461906433,0.27459368109703064,0.29769033193588257,0.3088109493255615,0.29640719294548035,0.28400343656539917,0.2476475685834885,0.24550898373126984,0.23994867503643036,0.23139435052871704,0.2296834886074066,0.2284003496170044,0.23396064341068268,0.22284004092216492,0.2100085616111755,0.21556885540485385,0.21214713156223297,0.200598806142807,0.1997433751821518,0.21556885540485385,0.32506415247917175,0.5132591724395752,0.7758768200874328,1.0,0.572711706161499,0.1364414095878601,0.0,0.09195894002914429,0.2134302854537964,0.26689478754997253,0.2797262668609619,0.28870829939842224,0.29084688425064087,0.29683491587638855,0.29041916131973267,0.2925577461719513,0.28785285353660583,0.284431129693985,0.2857142984867096,0.28742516040802,0.2942686080932617,0.30453377962112427,0.31180495023727417,0.3165098428726196,0.33190760016441345,0.344311386346817,0.3639863133430481,0.0,0.0,0.0,0.0,0.0,0.0,0.0,0.0,0.0,0.0,0.0,0.0,0.0,0.0,0.0,0.0,0.0,0.0,0.0,0.0,0.0,0.0,0.0,0.0,0.0,0.0,0.0,0.0,0.0,0.0,0.0,0.0,0.0,0.0,0.0,0.0,0.0,0
1.0,0.4902091026306152,0.11749087274074554,0.09226684272289276,0.06770660728216171,0.04215067997574806,0.022568868473172188,0.03285761550068855,0.01559907104820013,0.009293063543736935,0.020909393206238743,0.006637902464717627,0.018918022513389587,0.013607700355350971,0.017590440809726715,0.02057749778032303,0.017590440809726715,0.038167938590049744,0.030534351244568825,0.036176569759845734,0.047129105776548386,0.03352140635251999,0.04845668748021126,0.033853303641080856,0.04945237189531326,0.054762694984674454,0.041486889123916626,0.05509458854794502,0.05177563801407815,0.053103219717741006,0.04945237189531326,0.04613342136144638,0.06837039440870285,0.07334882020950317,0.07600398361682892,0.08131430298089981,0.06936608254909515,0.07932293415069581,0.06903418153524399,0.07334882020950317,0.0720212385058403,0.06604713201522827,0.0750082954764366,0.062064386904239655,0.07434450834989548,0.07799535244703293,0.07699967175722122,0.09027547389268877,0.07899104058742523,0.07434450834989548,0.08330567181110382,0.06438765674829483,0.07799535244703293,0.07168934494256973,0.07268503308296204,0.0750082954764366,0.06239628419280052,0.06837039440870285,0.05210753530263901,0.04978426918387413,0.060073018074035645,0.04613342136144638,0.05940922722220421,0.052771322429180145,0.05177563801407815,0.04878858104348183,0.04447394609451294,0.062064386904239655,0.056422170251607895,0.04248257726430893,0.035844672471284866,0.038167938590049744,0.056422170251607895,0.05708596110343933,0.062064386904239655,0.0657152310013771,0.07069366425275803,0.06306007504463196,0.0720212385058403,0.0710255578160286,0.0730169266462326,0.04646531865000725,0.0647195503115654,0.054762694984674454,0.04978426918387413,0.04082309827208519,0.02057749778032303,0.02754729427397251,0.02057749778032303,0.010952538810670376,0.021241288632154465,0.023232659325003624,0.03484898805618286,0.024560239166021347,0.006969797424972057,0.014271490275859833,0.17092598974704742,0.4420843124389648,0.745436429977417,0.9362761378288269,0.858944594860077,0.3040159344673157,0.10189180076122284,0.061732493340969086,0.03717225417494774,0.03186193108558655,0.005310322158038616,0.01825423166155815,0.000663790269754827,0.011284434236586092,0.01559907104820013,0.0,0.01958181150257587,0.012280119583010672,0.007965482771396637,0.011616329662501812,0.006637902464717627,0.02953866496682167,0.011284434236586092,0.012943909503519537,0.028542980551719666,0.022568868473172188,0.0,0.0,0.0,0.0,0.0,0.0,0.0,0.0,0.0,0.0,0.0,0.0,0.0,0.0,0.0,0.0,0.0,0.0,0.0,0.0,0.0,0.0,0.0,0.0,0.0,0.0,0.0,0.0,0.0,0.0,0.0,0.0,0.0,0.0,0.0,0.0,0.0,0.0,0.0,0.0,0.0,0.0,0.0,0.0,0.0,0.0,0.0,0.0,0.0,0.0,0.0,0.0,0.0,0.0,0.0,0.0,0.0,0.0,0.0,0.0,0.0,0.0,0.0,0.0,0.0,1
1.0,0.9788618087768555,0.8406503796577453,0.5560975670814514,0.4650406539440155,0.502439022064209,0.5300812721252441,0.5560975670814514,0.5642276406288147,0.562601625919342,0.5739837288856506,0.5804877877235413,0.5967479944229126,0.5918698906898499,0.5967479944229126,0.5918698906898499,0.5983740091323853,0.5967479944229126,0.5951219797134399,0.5983740091323853,0.6065040826797485,0.6048780679702759,0.6048780679702759,0.6048780679702759,0.6048780679702759,0.6048780679702759,0.6081300973892212,0.6032520532608032,0.6113821268081665,0.6162601709365845,0.6178861856460571,0.6113821268081665,0.6113821268081665,0.6162601709365845,0.6211382150650024,0.6113821268081665,0.6146341562271118,0.6146341562271118,0.6308943033218384,0.6276422739028931,0.637398362159729,0.6406503915786743,0.6471544504165649,0.637398362159729,0.6406503915786743,0.6455284357070923,0.6471544504165649,0.6504064798355103,0.6520324945449829,0.6439024209976196,0.6471544504165649,0.6406503915786743,0.637398362159729,0.637398362159729,0.637398362159729,0.6341463327407837,0.6341463327407837,0.632520318031311,0.6308943033218384,0.632520318031311,0.637398362159729,0.642276406288147,0.6569105982780457,0.6845528483390808,0.707317054271698,0.7138211131095886,0.7495934963226318,0.6943089365959167,0.3853658437728882,0.06504064798355103,0.0,0.03252032399177551,0.11544715613126753,0.2048780471086502,0.3284552991390228,0.3967479765415192,0.4569105803966522,0.5138211250305176,0.5577235817909241,0.6000000238418579,0.6829268336296082,0.7268292903900148,0.7626016139984131,0.785365879535675,0.800000011920929,0.8130081295967102,0.8243902325630187,0.8471544981002808,0.8601626157760621,0.8682926893234253,0.0,0.0,0.0,0.0,0.0,0.0,0.0,0.0,0.0,0.0,0.0,0.0,0.0,0.0,0.0,0.0,0.0,0.0,0.0,0.0,0.0,0.0,0.0,0.0,0.0,0.0,0.0,0.0,0.0,0.0,0.0,0.0,0.0,0.0,0.0,0.0,0.0,0.0,0.0,0.0,0.0,0.0,0.0,0.0,0.0,0.0,0.0,0.0,0.0,0.0,0.0,0.0,0.0,0.0,0.0,0.0,0.0,0.0,0.0,0.0,0.0,0.0,0.0,0.0,0.0,0.0,0.0,0.0,0.0,0.0,0.0,0.0,0.0,0.0,0.0,0.0,0.0,0.0,0.0,0.0,0.0,0.0,0.0,0.0,0.0,0.0,0.0,0.0,0.0,0.0,0.0,0.0,0.0,0.0,0.0,0.0,0.0,0
0.9051383137702941,0.739130437374115,0.5494071245193481,0.3320158123970032,0.05138339847326279,0.02766798436641693,0.011857707053422928,0.07114624232053757,0.07509881258010864,0.12252964079380035,0.07905138283967972,0.09486165642738342,0.0830039530992508,0.0988142266869545,0.09090909361839294,0.10671936720609664,0.0988142266869545,0.12648221850395203,0.1422924846410751,0.1660079061985016,0.16996046900749207,0.197628453373909,0.19367589056491852,0.2292490154504776,0.22529643774032593,0.2924901247024536,0.30039525032043457,0.3754940629005432,0.3754940629005432,0.3636363744735718,0.430830031633377,0.4940711557865142,0.4387351870536804,0.40316206216812134,0.3320158123970032,0.3241106867790222,0.260869562625885,0.24110671877861023,0.20553359389305112,0.22134387493133545,0.19367589056491852,0.20553359389305112,0.20158103108406064,0.1818181872367859,0.15019762516021729,0.1778656095266342,0.1620553433895111,0.18577075004577637,0.1778656095266342,0.20158103108406064,0.15810276567935944,0.19367589056491852,0.16996046900749207,0.1660079061985016,0.15810276567935944,0.1739130467176437,0.13438735902309415,0.15415020287036896,0.1620553433895111,0.1818181872367859,0.1304347813129425,0.1462450623512268,0.1739130467176437,0.1739130467176437,0.11857707798480988,0.1422924846410751,0.1462450623512268,0.15810276567935944,0.15810276567935944,0.18972331285476685,0.20553359389305112,0.2292490154504776,0.20158103108406064,0.25296443700790405,0.18972331285476685,0.20158103108406064,0.18972331285476685,0.20553359389305112,0.1739130467176437,0.18577075004577637,0.1739130467176437,0.18972331285476685,0.1422924846410751,0.1660079061985016,0.12648221850395203,0.11067193746566772,0.1146245077252388,0.15019762516021729,0.1146245077252388,0.1422924846410751,0.12252964079380035,0.13438735902309415,0.13833992183208463,0.1620553433895111,0.13438735902309415,0.1462450623512268,0.19367589056491852,0.2924901247024536,0.45059287548065186,0.6047430634498596,0.5573122501373291,0.5098814368247986,0.7233201861381531,1.0,0.9604743123054504,0.739130437374115,0.5573122501373291,0.35177865624427795,0.09090909361839294,0.0,0.003952569328248501,0.07905138283967972,0.05533596873283386,0.05928853899240494,0.05533596873283386,0.07509881258010864,0.03952569141983986,0.07509881258010864,0.06324110925197601,0.09486165642738342,0.08695652335882187,0.0830039530992508,0.09090909361839294,0.1146245077252388,0.1146245077252388,0.0,0.0,0.0,0.0,0.0,0.0,0.0,0.0,0.0,0.0,0.0,0.0,0.0,0.0,0.0,0.0,0.0,0.0,0.0,0.0,0.0,0.0,0.0,0.0,0.0,0.0,0.0,0.0,0.0,0.0,0.0,0.0,0.0,0.0,0.0,0.0,0.0,0.0,0.0,0.0,0.0,0.0,0.0,0.0,0.0,0.0,0.0,0.0,0.0,0.0,0.0,0.0,0.0,0.0,0.0,0.0,0.0,0.0,0.0,0.0,0.0,0.0,0
1.0,0.5263898372650146,0.0014074594946578145,0.0,0.18085855245590207,0.45390570163726807,0.47149893641471863,0.5714285969734192,0.5911329984664917,0.604503870010376,0.6228008270263672,0.6368754506111145,0.656579852104187,0.6713582277297974,0.65728360414505,0.6586910486221313,0.6988036632537842,0.656579852104187,0.6643208861351013,0.674876868724823,0.6945812702178955,0.7375087738037108,0.7804363369941713,0.7966220974922181,0.8057705760002136,0.8381421566009521,0.8866994976997375,0.8972554802894592,0.8888106942176819,0.919071078300476,0.9268121123313904,0.9127374887466431,0.8684025406837464,0.7797325849533081,0.7572132349014281,0.7093595862388611,0.6432089805603027,0.6087262630462646,0.5862069129943848,0.5777621269226074,0.5587614178657532,0.5517241358757019,0.5657987594604492,0.5432794094085693,0.5721322894096375,0.5369458198547363,0.5299085378646851,0.5622800588607788,0.5432794094085693,0.5510203838348389,0.5777621269226074,0.5974665880203247,0.5756509304046631,0.5791695713996887,0.586910605430603,0.6023926734924316,0.5693174004554749,0.5707248449325562,0.5890218019485474,0.5946516394615173,0.5876143574714661,0.586910605430603,0.5960590839385986,0.5946516394615173,0.5904292464256287,0.586910605430603,0.5911329984664917,0.592540442943573,0.5650950074195862,0.5657987594604492,0.5833919644355774,0.5615763664245605,0.5306122303009033,0.5552427768707275,0.5496129393577576,0.541168212890625,0.5594651699066162,0.5545390844345093,0.546798050403595,0.5475017428398132,0.5601689219474792,0.5538353323936462,0.5615763664245605,0.5798733234405518,0.5805770754814148,0.6115411520004272,0.6790992021560669,0.6783955097198486,0.7100633382797241,0.721323013305664,0.6762843132019043,0.6439127326011658,0.6720619201660156,0.0,0.0,0.0,0.0,0.0,0.0,0.0,0.0,0.0,0.0,0.0,0.0,0.0,0.0,0.0,0.0,0.0,0.0,0.0,0.0,0.0,0.0,0.0,0.0,0.0,0.0,0.0,0.0,0.0,0.0,0.0,0.0,0.0,0.0,0.0,0.0,0.0,0.0,0.0,0.0,0.0,0.0,0.0,0.0,0.0,0.0,0.0,0.0,0.0,0.0,0.0,0.0,0.0,0.0,0.0,0.0,0.0,0.0,0.0,0.0,0.0,0.0,0.0,0.0,0.0,0.0,0.0,0.0,0.0,0.0,0.0,0.0,0.0,0.0,0.0,0.0,0.0,0.0,0.0,0.0,0.0,0.0,0.0,0.0,0.0,0.0,0.0,0.0,0.0,0.0,0.0,0.0,0.0,0.0,1
0.7111111283302307,0.5365079641342163,0.34285715222358704,0.15555556118488312,0.028571428731083866,0.0,0.03809523954987526,0.0793650820851326,0.09206349402666093,0.10158730298280716,0.11746031790971756,0.10793650895357132,0.1269841343164444,0.1269841343164444,0.13650794327259064,0.13968254625797272,0.1587301641702652,0.1746031790971756,0.190476194024086,0.21269841492176056,0.2380952388048172,0.2571428716182709,0.29523810744285583,0.3301587402820587,0.3682539761066437,0.4095238149166107,0.4285714328289032,0.4761904776096344,0.5111111402511597,0.5396825671195984,0.561904788017273,0.5587301850318909,0.5587301850318909,0.5269841551780701,0.4952380955219269,0.45396825671195984,0.4253968298435211,0.4095238149166107,0.40317460894584656,0.3841269910335541,0.3777777850627899,0.3682539761066437,0.37142857909202576,0.37460318207740784,0.3777777850627899,0.37460318207740784,0.39047619700431824,0.3968254029750824,0.39047619700431824,0.3968254029750824,0.3968254029750824,0.4000000059604645,0.3968254029750824,0.38730159401893616,0.3936507999897003,0.3968254029750824,0.3936507999897003,0.39047619700431824,0.4000000059604645,0.4000000059604645,0.3968254029750824,0.380952388048172,0.39047619700431824,0.38730159401893616,0.4000000059604645,0.4158730208873749,0.42222222685813904,0.4317460358142853,0.43809524178504944,0.4285714328289032,0.42222222685813904,0.4095238149166107,0.4000000059604645,0.39047619700431824,0.3841269910335541,0.380952388048172,0.37142857909202576,0.3523809611797333,0.35873016715049744,0.3523809611797333,0.3492063581943512,0.3492063581943512,0.34285715222358704,0.3492063581943512,0.3492063581943512,0.34285715222358704,0.3460317552089691,0.3333333432674408,0.3460317552089691,0.3492063581943512,0.34285715222358704,0.37142857909202576,0.4095238149166107,0.523809552192688,0.6730158925056458,0.7111111283302307,0.5968254208564758,0.6349206566810608,0.8349206447601318,1.0,0.9238095283508301,0.7301587462425232,0.5682539939880371,0.34285715222358704,0.19365079700946808,0.18730159103870392,0.2507936656475067,0.2730158865451813,0.2857142984867096,0.2857142984867096,0.2888889014720917,0.29206350445747375,0.30158731341362,0.3047619163990021,0.3174603283405304,0.32380953431129456,0.32698413729667664,0.3333333432674408,0.35555556416511536,0.3682539761066437,0.0,0.0,0.0,0.0,0.0,0.0,0.0,0.0,0.0,0.0,0.0,0.0,0.0,0.0,0.0,0.0,0.0,0.0,0.0,0.0,0.0,0.0,0.0,0.0,0.0,0.0,0.0,0.0,0.0,0.0,0.0,0.0,0.0,0.0,0.0,0.0,0.0,0.0,0.0,0.0,0.0,0.0,0.0,0.0,0.0,0.0,0.0,0.0,0.0,0.0,0.0,0.0,0.0,0.0,0.0,0.0,0.0,0.0,0.0,0.0,0.0,0.0,0.0,0.0,0.0,0.0,0.0,0
1.0,0.7142857313156128,0.06813187152147293,0.0,0.10769230872392654,0.1208791211247444,0.12527473270893097,0.11428571492433548,0.10329670459032057,0.09890110045671464,0.10989011079072952,0.1010989025235176,0.10769230872392654,0.10769230872392654,0.10989011079072952,0.10549450665712357,0.11868131905794144,0.1120879128575325,0.11868131905794144,0.11648351699113844,0.12747253477573395,0.12527473270893097,0.14505495131015775,0.15604396164417267,0.17142857611179352,0.18681319057941437,0.20879121124744415,0.2307692319154739,0.2549450695514679,0.2747252881526947,0.29230770468711853,0.3076923191547394,0.32087913155555725,0.3274725377559662,0.3384615480899811,0.3252747356891632,0.31208792328834534,0.2857142984867096,0.26153847575187683,0.22857142984867096,0.20659340918064115,0.18461538851261136,0.17582418024539948,0.16703297197818756,0.1626373678445816,0.1516483575105667,0.15604396164417267,0.14945055544376373,0.1626373678445816,0.15604396164417267,0.16043956577777863,0.16483516991138458,0.16703297197818756,0.1626373678445816,0.17582418024539948,0.1692307740449905,0.18021978437900543,0.17142857611179352,0.17802198231220245,0.17142857611179352,0.17362637817859647,0.17142857611179352,0.17582418024539948,0.1626373678445816,0.16483516991138458,0.1538461595773697,0.1516483575105667,0.14505495131015775,0.14725275337696075,0.1406593471765518,0.13846154510974884,0.1318681389093399,0.1318681389093399,0.1318681389093399,0.13406594097614288,0.12747253477573395,0.13846154510974884,0.1230769231915474,0.12747253477573395,0.12967033684253693,0.13846154510974884,0.13406594097614288,0.14945055544376373,0.16483516991138458,0.17142857611179352,0.17142857611179352,0.18021978437900543,0.17802198231220245,0.18021978437900543,0.15824176371097565,0.15824176371097565,0.16483516991138458,0.1516483575105667,0.1318681389093399,0.12527473270893097,0.1230769231915474,0.11648351699113844,0.10989011079072952,0.11648351699113844,0.10989011079072952,0.10989011079072952,0.10769230872392654,0.11428571492433548,0.07032967358827591,0.07472527772188187,0.17362637817859647,0.5582417845726013,0.9142857193946838,0.9010989069938661,0.3076923191547394,0.004395604599267244,0.035164836794137955,0.12967033684253693,0.10329670459032057,0.11648351699113844,0.09890110045671464,0.09670329838991165,0.09450549632310869,0.09890110045671464,0.09230769425630568,0.09890110045671464,0.09450549632310869,0.09670329838991165,0.09450549632310869,0.1010989025235176,0.09450549632310869,0.10549450665712357,0.10989011079072952,0.11428571492433548,0.0,0.0,0.0,0.0,0.0,0.0,0.0,0.0,0.0,0.0,0.0,0.0,0.0,0.0,0.0,0.0,0.0,0.0,0.0,0.0,0.0,0.0,0.0,0.0,0.0,0.0,0.0,0.0,0.0,0.0,0.0,0.0,0.0,0.0,0.0,0.0,0.0,0.0,0.0,0.0,0.0,0.0,0.0,0.0,0.0,0.0,0.0,0.0,0.0,0.0,0.0,0.0,0.0,0.0,0.0,0.0,0.0,0.0,0
1.0,0.6858006119728088,0.09969788789749144,0.04229607433080674,0.1117824763059616,0.10271903127431868,0.07552870362997055,0.06646525859832764,0.05740181356668472,0.05135951563715934,0.04833836853504181,0.054380666464567184,0.06948640197515488,0.05740181356668472,0.06646525859832764,0.07854984700679779,0.07552870362997055,0.0634441077709198,0.0876132920384407,0.09063444286584854,0.0876132920384407,0.07854984700679779,0.0876132920384407,0.09063444286584854,0.09365558624267578,0.07854984700679779,0.08157099783420563,0.09365558624267578,0.0876132920384407,0.08459214866161348,0.09365558624267578,0.12084592133760452,0.12990936636924744,0.13293051719665527,0.14803625643253326,0.15709969401359558,0.14501510560512543,0.11782477051019669,0.11480362713336945,0.11480362713336945,0.10574018210172652,0.0876132920384407,0.0876132920384407,0.09667673707008362,0.08459214866161348,0.07552870362997055,0.07552870362997055,0.09063444286584854,0.0876132920384407,0.07552870362997055,0.0876132920384407,0.0876132920384407,0.07552870362997055,0.06948640197515488,0.07250755280256271,0.07854984700679779,0.07250755280256271,0.06646525859832764,0.09667673707008362,0.11480362713336945,0.11782477051019669,0.1117824763059616,0.13293051719665527,0.12990936636924744,0.10876133292913436,0.09365558624267578,0.09063444286584854,0.0876132920384407,0.05740181356668472,0.03625377640128136,0.04833836853504181,0.0634441077709198,0.05740181356668472,0.04833836853504181,0.054380666464567184,0.04531722143292427,0.0,0.14803625643253326,0.5377643704414368,0.9244713187217712,0.6767371892929077,0.10574018210172652,0.03323262929916382,0.1359516680240631,0.11782477051019669,0.07250755280256271,0.06948640197515488,0.07854984700679779,0.06948640197515488,0.06948640197515488,0.07552870362997055,0.0876132920384407,0.08459214866161348,0.07854984700679779,0.09063444286584854,0.09969788789749144,0.0,0.0,0.0,0.0,0.0,0.0,0.0,0.0,0.0,0.0,0.0,0.0,0.0,0.0,0.0,0.0,0.0,0.0,0.0,0.0,0.0,0.0,0.0,0.0,0.0,0.0,0.0,0.0,0.0,0.0,0.0,0.0,0.0,0.0,0.0,0.0,0.0,0.0,0.0,0.0,0.0,0.0,0.0,0.0,0.0,0.0,0.0,0.0,0.0,0.0,0.0,0.0,0.0,0.0,0.0,0.0,0.0,0.0,0.0,0.0,0.0,0.0,0.0,0.0,0.0,0.0,0.0,0.0,0.0,0.0,0.0,0.0,0.0,0.0,0.0,0.0,0.0,0.0,0.0,0.0,0.0,0.0,0.0,0.0,0.0,0.0,0.0,0.0,0.0,0.0,0.0,0
0.9647576808929444,0.8678414225578309,0.18502202630043027,0.0,0.1189427301287651,0.1629955917596817,0.08810572326183319,0.12775330245494843,0.21145375072956085,0.21145375072956085,0.16740088164806363,0.15859030187129974,0.2378854602575302,0.3127753436565399,0.2951541841030121,0.2599118947982788,0.28634360432624817,0.33039647340774536,0.3392070531845093,0.34361234307289124,0.2951541841030121,0.30837005376815796,0.3480176329612732,0.37885463237762446,0.34361234307289124,0.4052863419055938,0.392070472240448,0.37444934248924255,0.4008810520172119,0.4449339210987091,0.44933921098709106,0.458149790763855,0.453744500875473,0.5022026300430298,0.5330396294593811,0.5198237895965576,0.5242290496826172,0.4801762104034424,0.453744500875473,0.3876652121543884,0.35242289304733276,0.33039647340774536,0.3171806037425995,0.2599118947982788,0.1938326060771942,0.21145375072956085,0.2511013150215149,0.22466960549354553,0.1806167364120483,0.22026431560516355,0.21145375072956085,0.18942731618881223,0.17621144652366638,0.2158590257167816,0.22466960549354553,0.2026431709527969,0.1806167364120483,0.1938326060771942,0.2026431709527969,0.20704846084117887,0.2290748953819275,0.25550660490989685,0.303964763879776,0.33039647340774536,0.34361234307289124,0.37444934248924255,0.37885463237762446,0.3480176329612732,0.3392070531845093,0.3612334728240966,0.37004405260086054,0.36563876271247864,0.32158589363098145,0.32158589363098145,0.3568281829357147,0.3568281829357147,0.36563876271247864,0.4008810520172119,0.4008810520172119,0.3964757621288299,0.37444934248924255,0.38325992226600647,0.4008810520172119,0.4052863419055938,0.37004405260086054,0.392070472240448,0.46255508065223694,0.6872246861457825,1.0,0.8854625821113588,0.22026431560516355,0.044052861630916595,0.13215859234333038,0.15859030187129974,0.1409691572189331,0.2511013150215149,0.2687224745750427,0.2290748953819275,0.2290748953819275,0.2731277644634247,0.33039647340774536,0.38325992226600647,0.40969163179397583,0.3876652121543884,0.37444934248924255,0.0,0.0,0.0,0.0,0.0,0.0,0.0,0.0,0.0,0.0,0.0,0.0,0.0,0.0,0.0,0.0,0.0,0.0,0.0,0.0,0.0,0.0,0.0,0.0,0.0,0.0,0.0,0.0,0.0,0.0,0.0,0.0,0.0,0.0,0.0,0.0,0.0,0.0,0.0,0.0,0.0,0.0,0.0,0.0,0.0,0.0,0.0,0.0,0.0,0.0,0.0,0.0,0.0,0.0,0.0,0.0,0.0,0.0,0.0,0.0,0.0,0.0,0.0,0.0,0.0,0.0,0.0,0.0,0.0,0.0,0.0,0.0,0.0,0.0,0.0,0.0,0.0,0.0,0.0,0.0,0.0,0.0,1
1.0,0.7212903499603271,0.3470967710018158,0.09225806593894958,0.07032258063554764,0.31806451082229614,0.3767741918563842,0.40903225541114807,0.4270967841148376,0.42967742681503296,0.41935482621192927,0.4277419447898865,0.4290322661399842,0.4309677481651306,0.4348387122154236,0.44903224706649775,0.43677419424057007,0.4600000083446502,0.48774194717407227,0.49612903594970703,0.49677419662475586,0.49677419662475586,0.5129032135009766,0.5451613068580627,0.5729032158851624,0.5987097024917603,0.662580668926239,0.7032257914543152,0.732903242111206,0.778064489364624,0.7993548512458801,0.7896774411201477,0.7696774005889893,0.7122580409049988,0.6458064317703247,0.5722580552101135,0.4993548393249512,0.4567742049694061,0.4283871054649353,0.4051612913608551,0.39032256603240967,0.3812903165817261,0.3858064413070678,0.3864516019821167,0.3838709592819214,0.37161290645599365,0.3799999952316284,0.3722580671310425,0.35483869910240173,0.3612903356552124,0.36580646038055414,0.3541935384273529,0.35483869910240173,0.3587096631526947,0.36000001430511475,0.35935482382774353,0.366451621055603,0.3696774244308472,0.3774193525314331,0.3825806379318238,0.3838709592819214,0.37612903118133545,0.37419354915618896,0.39161291718482966,0.39483872056007385,0.39032256603240967,0.3864516019821167,0.3864516019821167,0.4116128981113434,0.4006451666355133,0.40193548798561096,0.4174193441867828,0.4051612913608551,0.4000000059604645,0.41096773743629456,0.4116128981113434,0.4187096655368805,0.40580645203590393,0.4000000059604645,0.4141935408115387,0.4148387014865875,0.4135483801364898,0.420645147562027,0.4116128981113434,0.39677420258522034,0.3858064413070678,0.40193548798561096,0.4419354796409607,0.46967741847038275,0.49354839324951166,0.5393548607826233,0.5309677124023438,0.4909677505493164,0.48774194717407227,0.5051612854003906,0.46903225779533386,0.4251613020896912,0.3987096846103668,0.3799999952316284,0.3883870840072632,0.3896774053573608,0.39290323853492737,0.39290323853492737,0.3896774053573608,0.3767741918563842,0.37612903118133545,0.4006451666355133,0.5696774125099182,0.5735483765602112,0.6819354891777039,0.9987096786499025,0.855483889579773,0.43999999761581426,0.11548387259244917,0.0,0.24838709831237793,0.35032257437705994,0.3683871030807495,0.4187096655368805,0.4335483908653259,0.4354838728904724,0.4580645263195038,0.44580644369125366,0.4541935622692108,0.4419354796409607,0.44903224706649775,0.4625806510448456,0.4638709723949432,0.47548386454582214,0.4903225898742676,0.5032258033752441,0.5012903213500977,0.5374193787574768,0.5464516282081604,0.5870967507362366,0.6096774339675903,0.6341935396194458,0.6806451678276062,0.7212903499603271,0.7574193477630614,0.7851613163948059,0.0,0.0,0.0,0.0,0.0,0.0,0.0,0.0,0.0,0.0,0.0,0.0,0.0,0.0,0.0,0.0,0.0,0.0,0.0,0.0,0.0,0.0,0.0,0.0,0.0,0.0,0.0,0.0,0.0,0.0,0.0,0.0,0.0,0.0,0.0,0.0,0.0,0.0,0.0,0.0,0.0,0.0,0.0,0.0,0.0,0.0,0
0.9851694703102112,0.5642655491828918,0.23516948521137235,0.0,0.11299435049295424,0.2711864411830902,0.30014124512672424,0.3192090392112732,0.3340395390987396,0.3361581861972809,0.35663843154907227,0.3644067943096161,0.3622881472110748,0.37994349002838135,0.38206213712692255,0.40042373538017273,0.40960451960563654,0.4293785393238067,0.44067797064781183,0.4378530979156494,0.4611581861972809,0.48093220591545105,0.5021186470985413,0.5444915294647217,0.5798022747039795,0.6327683329582214,0.6716101765632629,0.7196327447891235,0.7514124512672424,0.7697740197181703,0.7853107452392578,0.7853107452392578,0.7584745883941649,0.6829096078872681,0.596045196056366,0.5233050584793091,0.46680790185928345,0.41101694107055664,0.37994349002838135,0.3502824902534485,0.3368644118309021,0.326977401971817,0.318502813577652,0.3163841664791107,0.32203391194343567,0.3149717450141907,0.3163841664791107,0.31144067645072937,0.31709039211273193,0.3093220293521881,0.3227401077747345,0.32203391194343567,0.3086158335208893,0.32415252923965454,0.32203391194343567,0.32132768630981445,0.3305084705352783,0.3326271176338196,0.34180790185928345,0.3396892547607422,0.3368644118309021,0.33121469616889954,0.3375706076622009,0.33121469616889954,0.32203391194343567,0.33121469616889954,0.325564980506897,0.3227401077747345,0.3262711763381958,0.32838982343673706,0.32485875487327576,0.3156779706478119,0.325564980506897,0.32203391194343567,0.3128530979156494,0.318502813577652,0.31144067645072937,0.32062146067619324,0.3149717450141907,0.3100282549858093,0.3093220293521881,0.31144067645072937,0.298022598028183,0.30437853932380676,0.299435019493103,0.30720338225364685,0.3608756959438324,0.39406779408454895,0.4018361568450928,0.43926554918289185,0.4752824902534485,0.45480227470397955,0.4427966177463531,0.4590395390987396,0.3968926668167114,0.3375706076622009,0.2959039509296417,0.2641243040561676,0.2817796468734741,0.2768361568450928,0.27612993121147156,0.27612993121147156,0.2909604609012604,0.2733050882816314,0.2634180784225464,0.3502824902534485,0.43573445081710815,0.5141242742538452,0.8516949415206909,1.0,0.7733050584793091,0.3050847351551056,0.0346045196056366,0.048728812485933304,0.2535310685634613,0.3149717450141907,0.3305084705352783,0.3502824902534485,0.36581921577453613,0.3707627058029174,0.37923729419708246,0.3855932056903839,0.403954803943634,0.4053672254085541,0.4152542352676392,0.4336158335208893,0.44632768630981445,0.45268362760543823,0.46680790185928345,0.4872881472110748,0.5063559412956238,0.526129961013794,0.5557909607887268,0.6009886860847473,0.6546609997749329,0.6942090392112732,0.75,0.7810734510421754,0.8043785095214844,0.8262711763381958,0.8432203531265259,0.0,0.0,0.0,0.0,0.0,0.0,0.0,0.0,0.0,0.0,0.0,0.0,0.0,0.0,0.0,0.0,0.0,0.0,0.0,0.0,0.0,0.0,0.0,0.0,0.0,0.0,0.0,0.0,0.0,0.0,0.0,0.0,0.0,0.0,0.0,0.0,0.0,0.0,0.0,0.0,0.0,0.0,0.0,0.0,0.0,0.0,0
1.0,0.6844151020050049,0.32607850432395935,0.15973572432994843,0.12397979199886322,0.12475709617137908,0.11542946100234984,0.11504080891609192,0.11504080891609192,0.12747764587402344,0.10998833924531937,0.1204819306731224,0.1181500181555748,0.14302371442317963,0.12397979199886322,0.13758258521556854,0.14224641025066376,0.1616789698600769,0.16323357820510864,0.19121648371219635,0.21026039123535156,0.23124757409095764,0.2534007132053375,0.26816946268081665,0.2953750491142273,0.3097551465034485,0.33035367727279663,0.3354061543941498,0.3163622319698334,0.2883793115615845,0.25262340903282166,0.20909443497657776,0.18344345688819885,0.15856976807117462,0.14691022038459775,0.1383598893880844,0.1395258456468582,0.13408473134040833,0.15856976807117462,0.15584920346736908,0.14807617664337158,0.1364166289567947,0.14691022038459775,0.1593470722436905,0.16206762194633484,0.14885348081588745,0.14963078498840332,0.1438010036945343,0.15856976807117462,0.1364166289567947,0.14768752455711365,0.1395258456468582,0.14846482872962952,0.1426350623369217,0.1395258456468582,0.1472988724708557,0.14885348081588745,0.15429459512233734,0.14768752455711365,0.16362223029136655,0.18305480480194092,0.187329962849617,0.19626894593238833,0.21298095583915713,0.2584531605243683,0.2207539826631546,0.18344345688819885,0.14224641025066376,0.1049358695745468,0.08122813701629639,0.06568208336830139,0.07734162360429764,0.06412747502326965,0.06179556995630264,0.0614069178700447,0.0,0.024485036730766296,0.20598523318767548,0.6016323566436768,0.928099513053894,0.8810727000236512,0.4535561501979828,0.1504080891609192,0.06062961369752884,0.05246793478727341,0.07695297151803969,0.06762533634901047,0.06296152621507645,0.07500971853733063,0.08083948493003845,0.07889623194932938,0.07462106645107269,0.08006218075752257,0.07889623194932938,0.08278274536132812,0.09716284275054933,0.0,0.0,0.0,0.0,0.0,0.0,0.0,0.0,0.0,0.0,0.0,0.0,0.0,0.0,0.0,0.0,0.0,0.0,0.0,0.0,0.0,0.0,0.0,0.0,0.0,0.0,0.0,0.0,0.0,0.0,0.0,0.0,0.0,0.0,0.0,0.0,0.0,0.0,0.0,0.0,0.0,0.0,0.0,0.0,0.0,0.0,0.0,0.0,0.0,0.0,0.0,0.0,0.0,0.0,0.0,0.0,0.0,0.0,0.0,0.0,0.0,0.0,0.0,0.0,0.0,0.0,0.0,0.0,0.0,0.0,0.0,0.0,0.0,0.0,0.0,0.0,0.0,0.0,0.0,0.0,0.0,0.0,0.0,0.0,0.0,0.0,0.0,0.0,0.0,0.0,0.0,0
